SpectraSuite Data File
++++++++++++++++++++++++++++++++++++
Date: Fri Oct 18 13:58:03 GMT-05:00 2013
User: bianchi
Dark Spectrum Present: No
Reference Spectrum Present: No
Number of Sampled Component Spectra: 1
Spectrometers: USB2+H05261
Integration Time (usec): 50000 (USB2+H05261)
Spectra Averaged: 1 (USB2+H05261)
Boxcar Smoothing: 0 (USB2+H05261)
Correct for Electrical Dark: No (USB2+H05261)
Strobe/Lamp Enabled: No (USB2+H05261)
Correct for Detector Non-linearity: No (USB2+H05261)
Correct for Stray Light: No (USB2+H05261)
Number of Pixels in Processed Spectrum: 2048
>>>>>Begin Processed Spectral Data<<<<<
365.73	0.00
365.92	0.00
366.12	0.00
366.32	0.00
366.52	0.00
366.72	0.00
366.91	0.00
367.11	0.00
367.31	0.00
367.51	0.00
367.70	0.00
367.90	0.00
368.10	0.00
368.30	0.00
368.49	0.00
368.69	0.00
368.89	0.00
369.09	0.00
369.28	0.00
369.48	0.00
369.68	0.00
369.87	0.00
370.07	0.00
370.27	0.00
370.47	0.00
370.66	70.22
370.86	42.13
371.06	138.09
371.25	135.75
371.45	77.24
371.65	152.13
371.84	79.58
372.04	180.22
372.24	203.63
372.44	180.22
372.63	112.35
372.83	187.24
373.03	229.37
373.22	163.84
373.42	217.67
373.62	191.92
373.81	182.56
374.01	266.82
374.21	280.86
374.40	152.13
374.60	287.89
374.79	255.12
374.99	215.33
375.19	215.33
375.38	311.29
375.58	280.86
375.78	259.80
375.97	250.44
376.17	278.52
376.37	271.50
376.56	229.37
376.76	271.50
376.95	269.16
377.15	315.97
377.35	245.76
377.54	313.63
377.74	337.04
377.93	280.86
378.13	315.97
378.33	229.37
378.52	294.91
378.72	243.42
378.91	271.50
379.11	341.72
379.31	264.48
379.50	264.48
379.70	322.99
379.89	299.59
380.09	358.10
380.28	283.20
380.48	311.29
380.68	287.89
380.87	320.65
381.07	337.04
381.26	322.99
381.46	287.89
381.65	379.17
381.85	327.68
382.04	304.27
382.24	353.42
382.43	287.89
382.63	330.02
382.83	337.04
383.02	322.99
383.22	388.53
383.41	388.53
383.61	386.19
383.80	433.00
384.00	381.51
384.19	332.36
384.39	479.81
384.58	381.51
384.78	339.38
384.97	367.46
385.17	388.53
385.36	470.45
385.56	355.76
385.75	381.51
385.95	430.66
386.14	458.74
386.34	433.00
386.53	435.34
386.72	409.59
386.92	449.38
387.11	353.42
387.31	404.91
387.50	484.49
387.70	433.00
387.89	433.00
388.09	423.64
388.28	496.19
388.48	468.11
388.67	423.64
388.86	463.43
389.06	531.30
389.25	468.11
389.45	463.43
389.64	444.70
389.84	477.47
390.03	484.49
390.22	475.13
390.42	465.77
390.61	482.15
390.81	500.87
391.00	503.22
391.19	507.90
391.39	500.87
391.58	533.64
391.78	503.22
391.97	433.00
392.16	552.37
392.36	599.18
392.55	582.79
392.75	613.22
392.94	491.51
393.13	568.75
393.33	472.79
393.52	535.98
393.71	608.54
393.91	519.60
394.10	578.11
394.29	601.52
394.49	566.41
394.68	685.78
394.88	617.90
395.07	559.39
395.26	580.45
395.46	713.86
395.65	587.47
395.84	660.03
396.04	692.80
396.23	704.50
396.42	662.37
396.62	613.22
396.81	636.63
397.00	589.82
397.19	662.37
397.39	627.26
397.58	697.48
397.77	648.33
397.97	617.90
398.16	664.71
398.35	777.06
398.55	723.23
398.74	669.39
398.93	737.27
399.12	704.50
399.32	641.31
399.51	816.85
399.70	753.65
399.90	788.76
400.09	809.83
400.28	748.97
400.47	711.52
400.67	800.46
400.86	760.67
401.05	777.06
401.24	706.84
401.44	800.46
401.63	844.93
401.82	765.36
402.01	849.61
402.21	814.51
402.40	917.49
402.59	835.57
402.78	903.45
402.97	887.06
403.17	805.14
403.36	922.17
403.55	837.91
403.74	877.70
403.93	964.30
404.13	933.87
404.32	992.39
404.51	919.83
404.70	961.96
404.89	971.32
405.09	957.28
405.28	922.17
405.47	985.37
405.66	952.60
405.85	1011.11
406.05	891.74
406.24	978.34
406.43	1041.54
406.62	950.26
406.81	1104.73
407.00	912.81
407.20	1004.09
407.39	1046.22
407.58	1050.90
407.77	1046.22
407.96	1149.20
408.15	1067.28
408.34	1118.78
408.54	1078.99
408.73	1107.07
408.92	1196.01
409.11	1114.10
409.30	1151.54
409.49	1217.08
409.68	1153.88
409.87	1181.97
410.07	1219.42
410.26	1193.67
410.45	1299.00
410.64	1207.72
410.83	1289.64
411.02	1196.01
411.21	1242.82
411.40	1282.61
411.59	1249.85
411.78	1366.87
411.98	1186.65
412.17	1446.45
412.36	1348.15
412.55	1373.89
412.74	1373.89
412.93	1430.07
413.12	1341.13
413.31	1420.71
413.50	1357.51
413.69	1465.18
413.88	1472.20
414.07	1303.68
414.26	1458.15
414.45	1474.54
414.64	1528.37
414.83	1563.48
415.02	1507.30
415.22	1526.03
415.41	1675.82
415.60	1551.78
415.79	1490.92
415.98	1701.57
416.17	1671.14
416.36	1575.18
416.55	1535.39
416.74	1533.05
416.93	1621.99
417.12	1631.35
417.31	1685.19
417.50	1645.40
417.69	1739.02
417.88	1764.76
418.07	1755.40
418.26	1860.73
418.45	1858.39
418.64	1895.83
418.83	1867.75
419.02	1816.26
419.21	1851.36
419.39	1919.24
419.58	1774.13
419.77	1750.72
419.96	1799.87
420.15	1884.13
420.34	1900.52
420.53	1952.01
420.72	1853.70
420.91	1923.92
421.10	1996.48
421.29	1933.28
421.48	1891.15
421.67	2003.50
421.86	1940.30
422.05	2054.99
422.24	1930.94
422.43	1874.77
422.61	1968.39
422.80	2040.95
422.99	1975.41
423.18	2003.50
423.37	2108.82
423.56	2118.18
423.75	2031.58
423.94	2108.82
424.13	1914.56
424.32	2015.20
424.50	2062.01
424.69	2031.58
424.88	2012.86
425.07	2040.95
425.26	1893.49
425.45	2064.35
425.64	2010.52
425.83	1902.86
426.01	2050.31
426.20	2059.67
426.39	2024.56
426.58	2062.01
426.77	2069.03
426.96	2106.48
427.15	2054.99
427.33	2101.80
427.52	2099.46
427.71	2115.84
427.90	2232.87
428.09	2101.80
428.28	2120.53
428.46	2160.31
428.65	2216.49
428.84	2207.13
429.03	2237.55
429.22	2204.78
429.40	2260.96
429.59	2284.36
429.78	2174.36
429.97	2136.91
430.16	2221.17
430.34	2289.04
430.53	2296.07
430.72	2319.47
430.91	2258.62
431.10	2218.83
431.28	2356.92
431.47	2595.65
431.66	2534.80
431.85	2399.05
432.03	2429.48
432.22	2485.65
432.41	2476.29
432.60	2487.99
432.79	2368.62
432.97	2366.28
433.16	2490.33
433.35	2490.33
433.54	2621.40
433.72	2605.02
433.91	2523.10
434.10	2569.91
434.28	2445.86
434.47	2483.31
434.66	2518.42
434.85	2768.85
435.03	2630.76
435.22	2616.72
435.41	2745.45
435.59	2623.74
435.78	2635.44
435.97	2562.89
436.16	2750.13
436.34	2689.28
436.53	2532.46
436.72	2745.45
436.90	2754.81
437.09	2700.98
437.28	2850.77
437.46	2700.98
437.65	2813.32
437.84	2736.09
438.02	2785.24
438.21	2885.88
438.40	2782.90
438.58	2920.99
438.77	2890.56
438.96	2839.07
439.14	2935.03
439.33	2937.37
439.52	2993.55
439.70	3023.97
439.89	2963.12
440.08	3080.14
440.26	3098.87
440.45	3103.55
440.63	3215.90
440.82	3098.87
441.01	3171.43
441.19	3075.46
441.38	3297.81
441.57	3211.22
441.75	3141.00
441.94	3353.99
442.12	3332.92
442.31	3527.19
442.50	3445.27
442.68	3178.45
442.87	3382.07
443.05	3379.73
443.24	3536.55
443.43	3321.22
443.61	3538.89
443.80	3576.34
443.98	3290.79
444.17	3480.38
444.35	3363.35
444.54	3555.27
444.73	3510.80
444.91	3536.55
445.10	3426.54
445.28	3501.44
445.47	3417.18
445.65	3386.76
445.84	3559.95
446.02	3463.99
446.21	3447.61
446.39	3524.85
446.58	3456.97
446.77	3494.42
446.95	3459.31
447.14	3487.40
447.32	3475.70
447.51	3510.80
447.69	3545.91
447.88	3590.38
448.06	3496.76
448.25	3499.10
448.43	3559.95
448.62	3578.68
448.80	3524.85
448.99	3688.68
449.17	3534.21
449.36	3442.93
449.54	3698.05
449.73	3726.13
449.91	3798.69
450.10	3786.99
450.28	3901.67
450.46	3892.31
450.65	3861.88
450.83	3730.81
451.02	3789.33
451.20	3866.56
451.39	3920.40
451.57	3885.29
451.76	3754.22
451.94	3772.94
452.13	3995.29
452.31	3866.56
452.49	3843.16
452.68	3953.16
452.86	3936.78
453.05	3957.85
453.23	4056.15
453.42	3836.14
453.60	3786.99
453.78	3911.04
453.97	3840.82
454.15	3904.01
454.34	4032.74
454.52	4044.45
454.70	3971.89
454.89	3983.59
455.07	4028.06
455.26	4182.54
455.44	4203.60
455.62	4109.98
455.81	4102.96
455.99	4159.13
456.17	4299.56
456.36	4224.67
456.54	4348.72
456.73	4294.88
456.91	4308.93
457.09	4236.37
457.28	4519.57
457.46	4276.16
457.64	4372.12
457.83	4418.93
458.01	4163.81
458.19	4542.98
458.38	4271.48
458.56	4430.63
458.74	4472.76
458.93	4461.06
459.11	4468.08
459.29	4489.15
459.48	4519.57
459.66	4660.01
459.84	4542.98
460.03	4622.56
460.21	4519.57
460.39	4648.30
460.57	4564.04
460.76	4734.90
460.94	4657.67
461.12	4636.60
461.31	4552.34
461.49	4748.95
461.67	4678.73
461.85	4697.46
462.04	4674.05
462.22	4978.32
462.40	4800.44
462.59	4774.69
462.77	4830.87
462.95	4851.93
463.13	4816.82
463.32	4875.34
463.50	4772.35
463.68	4992.36
463.86	4849.59
464.05	4823.84
464.23	4905.76
464.41	4975.98
464.59	4933.85
464.78	5132.79
464.96	4922.15
465.14	4945.55
465.32	5020.45
465.50	5048.54
465.69	5184.29
465.87	5172.58
466.05	4964.28
466.23	4971.30
466.41	5146.84
466.60	5195.99
466.78	5025.13
466.96	5181.95
467.14	5043.85
467.32	4980.66
467.51	5350.46
467.69	5130.45
467.87	5156.20
468.05	5373.87
468.23	5226.42
468.41	5235.78
468.60	5102.37
468.78	5446.43
468.96	5348.12
469.14	5249.82
469.32	5455.79
469.50	5214.71
469.69	5453.45
469.87	5444.09
470.05	5404.30
470.23	5607.92
470.41	5551.75
470.59	5540.05
470.77	5425.36
470.95	5490.90
471.14	5540.05
471.32	5404.30
471.50	5830.27
471.68	5652.39
471.86	5680.48
472.04	5530.69
472.22	5731.97
472.40	5614.95
472.58	5834.96
472.77	5853.68
472.95	5806.87
473.13	6106.46
473.31	5919.21
473.49	5881.77
473.67	5846.66
473.85	5928.58
474.03	6038.58
474.21	5973.05
474.39	6122.84
474.57	6099.44
474.75	6193.06
474.93	6239.87
475.12	6043.26
475.30	6253.91
475.48	6279.66
475.66	6347.53
475.84	6300.72
476.02	6480.94
476.20	6377.96
476.38	6392.00
476.56	6677.55
476.74	6595.63
476.92	6604.99
477.10	6553.50
477.28	6537.12
477.46	6640.10
477.64	6895.22
477.82	6881.18
478.00	7112.89
478.18	7007.56
478.36	7052.03
478.54	7255.66
478.72	7131.61
478.90	7356.30
479.08	7295.45
479.26	7215.87
479.44	7206.51
479.62	7454.61
479.80	7475.67
479.98	7456.95
480.16	7611.42
480.34	7559.93
480.52	7686.32
480.70	7651.21
480.88	7564.61
481.06	7791.64
481.24	7934.42
481.41	8102.93
481.59	8116.98
481.77	8173.15
481.95	8011.65
482.13	8191.88
482.31	8212.94
482.49	8229.32
482.67	8325.29
482.85	8259.75
483.03	8430.61
483.21	8540.61
483.39	8697.43
483.57	8791.05
483.74	8858.93
483.92	8760.63
484.10	8692.75
484.28	8966.59
484.46	9067.24
484.64	9205.33
484.82	9282.56
485.00	9151.49
485.18	9600.88
485.35	9621.94
485.53	9174.90
485.71	9507.26
485.89	9750.67
486.07	9458.10
486.25	9666.41
486.43	9823.23
486.61	10141.54
486.78	9980.04
486.96	9785.78
487.14	10235.16
487.32	10183.67
487.50	10176.65
487.68	10429.43
487.85	10373.25
488.03	10745.40
488.21	10663.48
488.39	10642.42
488.57	10794.55
488.75	10839.02
488.92	11007.54
489.10	10963.07
489.28	10984.13
489.46	11037.97
489.64	11157.33
489.81	11438.20
489.99	11382.03
490.17	11190.10
490.35	11674.59
490.53	11571.61
490.70	11627.78
490.88	11674.59
491.06	12016.31
491.24	11925.03
491.41	12013.97
491.59	12013.97
491.77	11875.88
491.95	12409.52
492.13	12372.07
492.30	12496.12
492.48	12393.14
492.66	12306.54
492.84	12166.10
493.01	12894.01
493.19	12692.73
493.37	12982.95
493.54	13107.00
493.72	13057.85
493.90	13142.11
494.08	13254.45
494.25	13170.19
494.43	13462.76
494.61	13200.62
494.79	13383.18
494.96	13528.30
495.14	13666.39
495.32	13839.59
495.49	13626.60
495.67	13874.70
495.85	13837.25
496.02	14003.43
496.20	14047.90
496.38	14167.26
496.55	13968.32
496.73	14494.94
496.91	14572.18
497.09	14211.73
497.26	14534.73
497.44	14401.32
497.62	14473.87
497.79	14864.74
497.97	14604.94
498.14	14792.19
498.32	14869.42
498.50	15021.56
498.67	15180.71
498.85	15009.86
499.03	15260.29
499.20	15159.65
499.38	15351.57
499.56	15307.10
499.73	15330.51
499.91	15405.41
500.08	15819.68
500.26	15480.30
500.44	15740.10
500.61	15686.27
500.79	15899.26
500.97	15880.53
501.14	16023.31
501.32	16194.17
501.49	15908.62
501.67	15969.48
501.84	15815.00
502.02	16233.96
502.20	16400.13
502.37	16386.09
502.55	16531.20
502.72	16348.64
502.90	16360.34
503.07	16468.01
503.25	16510.14
503.43	16409.50
503.60	16858.88
503.78	16903.35
503.95	16891.65
504.13	16910.37
504.30	16828.45
504.48	16788.66
504.65	17015.69
504.83	17111.66
505.01	17530.61
505.18	17205.28
505.36	17273.15
505.53	17025.06
505.71	17238.05
505.88	17280.18
506.06	17495.50
506.23	17738.92
506.41	17444.01
506.58	17596.15
506.76	18078.30
506.93	17479.12
507.11	17652.32
507.28	17664.02
507.46	17951.91
507.63	17816.16
507.81	17909.78
507.98	17790.41
508.16	18258.52
508.33	18054.89
508.50	18373.21
508.68	18111.07
508.85	18307.67
509.03	18373.21
509.20	18593.22
509.38	18750.03
509.55	18892.80
509.73	18616.62
509.90	18345.12
510.08	18668.11
510.25	18553.43
510.42	18944.30
510.60	18530.02
510.77	18897.49
510.95	19138.56
511.12	18757.05
511.30	18843.65
511.47	18927.91
511.64	19117.50
511.82	19199.41
511.99	19063.66
512.17	19421.77
512.34	19271.97
512.51	19529.43
512.69	19068.34
512.86	19159.63
513.04	19932.00
513.21	19822.00
513.38	19756.46
513.56	19880.51
513.73	19817.32
513.90	19623.05
514.08	19924.98
514.25	19885.19
514.43	19871.15
514.60	20166.06
514.77	20144.99
514.95	20032.65
515.12	20215.21
515.29	20283.08
515.47	20552.24
515.64	20196.48
515.81	20538.20
515.99	20463.30
516.16	20350.96
516.33	20566.29
516.51	20648.21
516.68	20388.41
516.85	20790.98
517.03	20950.14
517.20	20734.81
517.37	20908.01
517.54	20753.53
517.72	20926.73
517.89	20933.75
518.06	20877.58
518.24	20790.98
518.41	20938.43
518.58	21006.31
518.75	21025.03
518.93	21158.44
519.10	21261.43
519.27	21212.28
519.45	21324.62
519.62	21132.70
519.79	21329.30
519.96	21177.17
520.14	21352.71
520.31	21682.72
520.48	21462.71
520.65	21579.74
520.83	21689.74
521.00	21785.71
521.17	21568.04
521.34	21701.45
521.52	21731.87
521.69	21994.01
521.86	22052.53
522.03	21827.84
522.20	22251.47
522.38	22389.56
522.55	22354.46
522.72	22008.06
522.89	21984.65
523.07	22457.44
523.24	22361.48
523.41	22492.55
523.58	22080.61
523.75	22616.60
523.92	22590.85
524.10	22384.88
524.27	22836.61
524.44	22602.55
524.61	22897.46
524.78	22944.27
524.96	22958.31
525.13	23145.56
525.30	22815.54
525.47	23051.94
525.64	22824.90
525.81	23005.13
525.98	23208.75
526.16	23335.14
526.33	23225.14
526.50	23190.03
526.67	23381.95
526.84	23461.53
527.01	23225.14
527.18	23370.25
527.36	23285.99
527.53	23260.24
527.70	23616.01
527.87	23527.06
528.04	23332.80
528.21	23431.10
528.38	23616.01
528.55	23623.03
528.72	23838.36
528.89	23791.55
529.07	23693.24
529.24	23674.52
529.41	23754.10
529.58	23747.08
529.75	23887.51
529.92	23662.82
530.09	23990.49
530.26	24013.90
530.43	24002.19
530.60	23601.96
530.77	24009.22
530.94	24383.70
531.11	23990.49
531.28	24144.97
531.46	24217.52
531.63	24194.12
531.80	24098.16
531.97	24718.40
532.14	24482.00
532.31	24503.07
532.48	24348.59
532.65	24458.60
532.82	24294.76
532.99	24613.07
533.16	24650.52
533.33	24229.23
533.50	24903.30
533.67	24767.55
533.84	24276.04
534.01	24524.13
534.18	24709.04
534.35	24912.66
534.52	24926.71
534.69	24980.54
534.86	25090.54
535.03	24980.54
535.20	24947.77
535.37	24898.62
535.54	25427.58
535.71	24812.02
535.88	24940.75
536.05	25144.38
536.22	25678.02
536.38	25418.22
536.55	25390.13
536.72	25429.92
536.89	25474.39
537.06	25633.55
537.23	25764.62
537.40	25289.49
537.57	24992.24
537.74	25212.25
537.91	25781.00
538.08	25359.70
538.25	25605.46
538.42	25507.16
538.59	25933.14
538.75	25481.41
538.92	25682.70
539.09	26127.40
539.26	26047.82
539.43	25940.16
539.60	25956.54
539.77	25694.40
539.94	25970.58
540.11	25858.24
540.28	26052.50
540.44	25869.94
540.61	25626.53
540.78	25846.54
540.95	26171.87
541.12	25963.56
541.29	26405.92
541.46	26001.01
541.62	26286.56
541.79	26092.29
541.96	25862.92
542.13	26424.65
542.30	26419.97
542.47	26991.06
542.63	26473.80
542.80	26455.08
542.97	26838.92
543.14	26845.94
543.31	26794.45
543.48	26424.65
543.64	26714.87
543.81	26813.18
543.98	26649.34
544.15	26754.66
544.32	26871.69
544.48	27049.57
544.65	26831.90
544.82	27166.60
544.99	26796.79
545.16	26969.99
545.32	27260.22
545.49	26803.82
545.66	27304.69
545.83	27037.87
546.00	27545.76
546.16	27222.77
546.33	26895.10
546.50	26824.88
546.67	27044.89
546.83	26876.37
547.00	27185.32
547.17	27234.47
547.34	27393.63
547.50	27833.65
547.67	27686.20
547.84	27372.57
548.00	27501.29
548.17	27503.64
548.34	27414.69
548.51	27536.40
548.67	27833.65
548.84	27557.47
549.01	27587.89
549.18	27623.00
549.34	27978.76
549.51	27611.30
549.68	27536.40
549.84	27515.34
550.01	27871.10
550.18	27410.01
550.34	28067.70
550.51	27718.96
550.68	27866.42
550.84	27417.04
551.01	28041.96
551.18	28086.43
551.34	27714.28
551.51	27850.03
551.68	27924.93
551.84	28013.87
552.01	28025.57
552.18	28238.56
552.34	28023.23
552.51	28149.62
552.68	28348.57
552.84	28114.52
553.01	28128.56
553.18	28580.28
553.34	28299.42
553.51	28322.82
553.67	28732.42
553.84	28481.98
554.01	28428.15
554.17	28938.38
554.34	28252.61
554.51	28355.59
554.67	28474.96
554.84	27873.44
555.00	28606.03
555.17	28739.44
555.33	28828.38
555.50	28610.71
555.67	28350.91
555.83	28606.03
556.00	28587.30
556.16	28549.85
556.33	28837.74
556.50	28835.40
556.66	28882.21
556.83	28629.43
556.99	28706.67
557.16	28790.93
557.32	29170.10
557.49	28692.63
557.65	28631.77
557.82	28608.37
557.98	28694.97
558.15	28945.41
558.32	29125.63
558.48	29263.72
558.65	29097.54
558.81	28952.43
558.98	28877.53
559.14	29062.43
559.31	28751.14
559.47	28975.83
559.64	28865.83
559.80	29144.35
559.97	29380.74
560.13	29024.98
560.30	29198.18
560.46	29448.62
560.63	29118.60
560.79	29219.25
560.96	29556.28
561.12	29284.78
561.29	29280.10
561.45	29142.01
561.61	29493.09
561.78	29083.50
561.94	29682.67
562.11	29546.92
562.27	29336.27
562.44	29270.74
562.60	29525.86
562.77	29460.32
562.93	29642.88
563.10	29369.04
563.26	29144.35
563.42	29687.36
563.59	29490.75
563.75	29729.48
563.92	29495.43
564.08	29223.93
564.24	29605.44
564.41	29507.13
564.57	29294.14
564.74	29514.16
564.90	29460.32
565.07	29507.13
565.23	29670.97
565.39	29472.03
565.56	29680.33
565.72	29315.21
565.88	29605.44
566.05	29558.63
566.21	29530.54
566.38	29500.11
566.54	29734.17
566.70	29736.51
566.87	29862.90
567.03	29591.39
567.19	29944.81
567.36	29699.06
567.52	29748.21
567.68	29998.65
567.85	29366.70
568.01	29649.91
568.17	29240.31
568.34	29827.79
568.50	29673.31
568.66	29710.76
568.83	30171.85
568.99	29914.39
569.15	29413.51
569.32	29818.42
569.48	29677.99
569.64	29607.78
569.81	30125.04
569.97	30101.63
570.13	30047.80
570.30	29830.13
570.46	29811.40
570.62	29912.05
570.78	30052.48
570.95	30082.91
571.11	29919.07
571.27	29876.94
571.43	29816.08
571.60	29687.36
571.76	29930.77
571.92	30223.34
572.09	30047.80
572.25	30204.61
572.41	29844.17
572.57	30000.99
572.74	29876.94
572.90	29795.02
573.06	30068.86
573.22	29935.45
573.38	30096.95
573.55	30174.19
573.71	30522.93
573.87	30384.83
574.03	29991.62
574.20	30312.28
574.36	30012.69
574.52	30235.04
574.68	30209.29
574.84	30171.85
575.01	30134.40
575.17	30202.27
575.33	30082.91
575.49	30298.23
575.65	30630.59
575.82	30408.24
575.98	30256.11
576.14	30555.69
576.30	30326.32
576.46	30307.60
576.62	29720.12
576.79	29902.68
576.95	30087.59
577.11	30232.70
577.27	30082.91
577.43	30513.56
577.59	30452.71
577.75	30054.82
577.92	30008.01
578.08	30022.05
578.24	29890.98
578.40	30249.08
578.56	30384.83
578.72	30462.07
578.88	30595.48
579.04	30293.55
579.21	30256.11
579.37	30637.61
579.53	29965.88
579.69	30115.67
579.85	30319.30
580.01	30033.75
580.17	30115.67
580.33	29914.39
580.49	29926.09
580.65	30698.47
580.82	30562.72
580.98	30185.89
581.14	30342.70
581.30	30541.65
581.46	30338.02
581.62	30314.62
581.78	29778.64
581.94	30122.69
582.10	30008.01
582.26	30242.06
582.42	30281.85
582.58	30593.14
582.74	30218.66
582.90	30422.28
583.06	30384.83
583.22	30483.14
583.38	30562.72
583.54	30375.47
583.70	30352.07
583.86	30700.81
584.02	30387.18
584.18	30604.84
584.34	30422.28
584.50	30630.59
584.66	30738.26
584.82	30153.12
584.98	30590.80
585.14	30274.83
585.30	30408.24
585.46	30155.46
585.62	30015.03
585.78	30478.46
585.94	30347.39
586.10	30558.03
586.26	30621.23
586.42	30778.04
586.58	30682.08
586.74	30204.61
586.90	30192.91
587.06	30319.30
587.22	30223.34
587.38	30073.54
587.54	30799.11
587.70	30817.83
587.86	30291.21
588.02	30721.87
588.18	31021.46
588.34	30845.92
588.49	30597.82
588.65	30309.94
588.81	30410.58
588.97	30525.27
589.13	30506.54
589.29	30618.89
589.45	30759.32
589.61	30796.77
589.77	30661.02
589.93	30733.57
590.08	31405.31
590.24	30623.57
590.40	31044.87
590.56	30920.82
590.72	30742.94
590.88	30572.08
591.04	30506.54
591.20	30738.26
591.35	31459.14
591.51	30878.69
591.67	30710.17
591.83	30806.13
591.99	31208.70
592.15	30707.83
592.31	31140.83
592.46	30735.92
592.62	30700.81
592.78	30991.03
592.94	30820.17
593.10	30689.10
593.26	30787.41
593.41	30890.39
593.57	30614.21
593.73	30913.80
593.89	30998.06
594.05	31005.08
594.20	30941.88
594.36	30948.90
594.52	30801.45
594.68	31033.16
594.84	30733.57
594.99	31168.91
595.15	31016.78
595.31	31145.51
595.47	30958.27
595.62	31260.20
595.78	30799.11
595.94	30897.41
596.10	31035.50
596.25	30635.27
596.41	30946.56
596.57	30602.50
596.73	30387.18
596.88	31061.25
597.04	30998.06
597.20	30628.25
597.36	31318.71
597.51	31124.44
597.67	30920.82
597.83	31168.91
597.99	31161.89
598.14	31091.68
598.30	31091.68
598.46	31187.64
598.61	30595.48
598.77	30857.62
598.93	31063.59
599.09	31002.74
599.24	31512.97
599.40	31534.04
599.56	31061.25
599.71	30909.11
599.87	31002.74
600.03	31271.90
600.18	31110.40
600.34	30733.57
600.50	30981.67
600.65	30948.90
600.81	31124.44
600.97	31070.61
601.12	31019.12
601.28	31166.57
601.44	31220.41
601.59	31215.72
601.75	30881.03
601.91	31477.86
602.06	31204.02
602.22	30946.56
602.37	30937.20
602.53	30951.24
602.69	31468.50
602.84	30967.63
603.00	31276.58
603.16	31021.46
603.31	31302.32
603.47	30668.04
603.62	31094.02
603.78	30885.71
603.94	31161.89
604.09	30941.88
604.25	30869.33
604.40	30850.60
604.56	30965.29
604.71	31587.87
604.87	31236.79
605.03	31243.81
605.18	31255.51
605.34	30962.95
605.49	30719.53
605.65	31194.66
605.80	30532.29
605.96	30874.01
606.12	31152.53
606.27	31012.10
606.43	30721.87
606.58	31058.91
606.74	30953.58
606.89	30707.83
607.05	31185.30
607.20	31618.30
607.36	31358.50
607.51	31239.13
607.67	31192.32
607.82	30934.86
607.98	30632.93
608.13	30902.09
608.29	30855.28
608.44	31175.94
608.60	30923.16
608.75	31213.38
608.91	30487.82
609.06	31131.47
609.22	30731.23
609.37	30417.60
609.53	30335.68
609.68	30679.74
609.84	30714.85
609.99	30675.06
610.15	30534.63
610.30	31087.00
610.46	30705.49
610.61	30700.81
610.76	30581.44
610.92	30649.32
611.07	30764.00
611.23	30483.14
611.38	30644.63
611.54	30700.81
611.69	30356.75
611.84	30326.32
612.00	30164.82
612.15	30693.79
612.31	30843.58
612.46	30532.29
612.62	30656.34
612.77	30541.65
612.92	30597.82
613.08	30307.60
613.23	30499.52
613.39	30490.16
613.54	30312.28
613.69	30895.07
613.85	30445.69
614.00	30696.13
614.15	30277.17
614.31	30202.27
614.46	30810.81
614.62	30359.09
614.77	30745.28
614.92	30424.62
615.08	30651.66
615.23	30401.22
615.38	30773.36
615.54	30066.52
615.69	30305.26
615.84	30213.98
616.00	30118.01
616.15	30235.04
616.30	30419.94
616.46	30342.70
616.61	30251.42
616.76	30593.14
616.92	30349.73
617.07	30373.13
617.22	30658.68
617.37	29958.86
617.53	30375.47
617.68	30291.21
617.83	30010.35
617.99	29869.92
618.14	29750.55
618.29	30443.35
618.45	30015.03
618.60	29776.30
618.75	30164.82
618.90	30206.95
619.06	29701.40
619.21	29879.28
619.36	30246.74
619.51	30120.35
619.67	29844.17
619.82	30274.83
619.97	30106.31
620.12	29820.77
620.28	29453.30
620.43	30132.06
620.58	30164.82
620.73	30221.00
620.89	30146.10
621.04	30153.12
621.19	29694.38
621.34	29685.01
621.49	29528.20
621.65	29656.93
621.80	30022.05
621.95	29666.29
622.10	29809.06
622.25	29600.76
622.41	29879.28
622.56	29790.34
622.71	29797.36
622.86	29972.90
623.01	29930.77
623.16	29776.30
623.32	29626.50
623.47	29710.76
623.62	29619.48
623.77	29865.24
623.92	29556.28
624.07	29397.13
624.23	29125.63
624.38	29373.72
624.53	29567.99
624.68	29352.66
624.83	29823.11
624.98	29610.12
625.13	29537.56
625.29	29827.79
625.44	29277.76
625.59	29214.57
625.74	29591.39
625.89	29310.53
626.04	28945.41
626.19	29448.62
626.34	29153.71
626.49	29282.44
626.65	29071.79
626.80	29369.04
626.95	29284.78
627.10	28903.28
627.25	28989.88
627.40	28657.52
627.55	28870.51
627.70	28826.04
627.85	28779.23
628.00	28683.27
628.15	29097.54
628.30	28910.30
628.45	29010.94
628.60	28964.13
628.76	29383.09
628.91	28739.44
629.06	28692.63
629.21	29118.60
629.36	28971.15
629.51	28737.10
629.66	28456.23
629.81	28772.21
629.96	29137.33
630.11	28945.41
630.26	28411.76
630.41	28526.45
630.56	28591.98
630.71	28804.97
630.86	28793.27
631.01	28804.97
631.16	28914.98
631.31	28503.04
631.46	28418.78
631.61	28730.08
631.76	28657.52
631.91	28472.62
632.06	28332.18
632.21	28276.01
632.36	28383.68
632.51	28231.54
632.66	28720.71
632.81	28601.35
632.96	28407.08
633.10	28460.91
633.25	28491.34
633.40	28603.69
633.55	28449.21
633.70	28203.46
633.85	28002.17
634.00	28116.86
634.15	27845.35
634.30	28060.68
634.45	28432.83
634.60	27983.44
634.75	28460.91
634.90	28189.41
635.05	28327.50
635.19	28531.13
635.34	28381.34
635.49	28201.11
635.64	28521.77
635.79	28208.14
635.94	28198.77
636.09	28086.43
636.24	28121.54
636.39	27653.43
636.53	28194.09
636.68	28034.94
636.83	27824.29
636.98	28278.35
637.13	27693.22
637.28	28091.11
637.43	28407.08
637.57	27779.82
637.72	28032.60
637.87	27878.12
638.02	27803.22
638.17	27985.79
638.32	27503.64
638.46	27716.62
638.61	27653.43
638.76	27491.93
638.91	27454.48
639.06	27835.99
639.20	27693.22
639.35	27894.50
639.50	27812.59
639.65	28268.99
639.80	27756.41
639.94	27674.49
640.09	27728.33
640.24	27711.94
640.39	27513.00
640.54	27337.46
640.68	27608.96
640.83	27384.27
640.98	27344.48
641.13	27316.39
641.27	27725.99
641.42	27419.38
641.57	27489.59
641.72	27494.27
641.86	27372.57
642.01	27395.97
642.16	27346.82
642.31	26721.90
642.45	27316.39
642.60	26778.07
642.75	27253.20
642.90	27222.77
643.04	27225.11
643.19	26909.14
643.34	27262.56
643.48	27323.41
643.63	27119.79
643.78	27672.15
643.93	27250.86
644.07	27098.72
644.22	27405.33
644.37	27063.61
644.51	27229.79
644.66	26965.31
644.81	27105.74
644.95	27119.79
645.10	27089.36
645.25	27087.02
645.39	26719.56
645.54	26689.13
645.69	26892.76
645.83	27051.91
645.98	27122.13
646.13	27122.13
646.27	27311.71
646.42	27084.68
646.57	26738.28
646.71	26874.03
646.86	26831.90
647.00	26654.02
647.15	26778.07
647.30	26829.56
647.44	26466.78
647.59	26820.20
647.74	26588.49
647.88	26551.04
648.03	26871.69
648.17	27185.32
648.32	27105.74
648.47	26974.67
648.61	26934.88
648.76	26817.86
648.90	26654.02
649.05	26845.94
649.20	26820.20
649.34	27051.91
649.49	26555.72
649.63	26499.55
649.78	26471.46
649.92	26335.71
650.07	26813.18
650.21	26279.54
650.36	26485.50
650.51	26319.32
650.65	26644.66
650.80	26710.19
650.94	26352.09
651.09	26508.91
651.23	26029.10
651.38	26579.12
651.52	26272.51
651.67	26146.12
651.81	26338.05
651.96	26008.03
652.10	26438.69
652.25	26347.41
652.39	26249.11
652.54	26375.50
652.68	26359.11
652.83	26553.38
652.97	26590.83
653.12	26153.15
653.26	25860.58
653.41	26216.34
653.55	26026.76
653.70	25949.52
653.84	26176.55
653.99	26026.76
654.13	25926.11
654.27	26066.55
654.42	25996.33
654.56	25708.44
654.71	26195.28
654.85	26075.91
655.00	25893.35
655.14	25731.85
655.29	25956.54
655.43	26111.02
655.57	25900.37
655.72	25968.24
655.86	25734.19
656.01	25699.08
656.15	25841.85
656.30	25596.10
656.44	25495.46
656.58	25617.16
656.73	25860.58
656.87	25708.44
657.01	25867.60
657.16	25745.89
657.30	25792.70
657.45	25998.67
657.59	25944.84
657.73	25703.76
657.88	25525.88
658.02	25488.43
658.16	25319.92
658.31	25369.07
658.45	25380.77
658.60	25245.02
658.74	25483.75
658.88	25228.63
659.03	25282.47
659.17	25502.48
659.31	25324.60
659.46	25296.51
659.60	25434.60
659.74	25303.53
659.89	25352.68
660.03	24835.42
660.17	25240.34
660.32	25298.85
660.46	25116.29
660.60	24718.40
660.74	25102.25
660.89	24882.24
661.03	24809.68
661.17	24910.32
661.32	24781.59
661.46	25001.60
661.60	24936.07
661.74	24835.42
661.89	25013.31
662.03	24868.19
662.17	24893.94
662.31	24690.31
662.46	24790.95
662.60	24758.19
662.74	24315.83
662.88	24465.62
663.03	24184.76
663.17	24482.00
663.31	24339.23
663.45	24430.51
663.60	24482.00
663.74	24109.86
663.88	24610.73
664.02	24093.47
664.17	24439.87
664.31	24285.40
664.45	23995.17
664.59	24603.71
664.73	24212.84
664.88	24273.70
665.02	23885.17
665.16	23819.63
665.30	24114.54
665.44	23894.53
665.59	23943.68
665.73	23709.63
665.87	23817.29
666.01	24184.76
666.15	23967.09
666.29	24016.24
666.44	23978.79
666.58	23702.61
666.72	23751.76
666.86	23831.33
667.00	23943.68
667.14	23520.04
667.28	23817.29
667.43	23527.06
667.57	23838.36
667.71	23440.47
667.85	23248.54
667.99	23522.38
668.13	23403.02
668.27	23201.73
668.41	23466.21
668.56	23271.95
668.70	23257.90
668.84	23213.43
668.98	23143.22
669.12	23253.22
669.26	23461.53
669.40	23388.97
669.54	22977.04
669.68	23180.67
669.82	22848.31
669.96	22864.69
670.10	22686.81
670.25	22780.43
670.39	23026.19
670.53	22747.67
670.67	22574.47
670.81	23049.60
670.95	22504.25
671.09	22817.88
671.23	22707.88
671.37	22867.03
671.51	22696.17
671.65	22546.38
671.79	22387.22
671.93	22366.16
672.07	22764.05
672.21	22309.99
672.35	22380.20
672.49	22185.94
672.63	21853.58
672.77	22045.51
672.91	22111.04
673.05	22036.14
673.19	22120.40
673.33	22174.24
673.47	22176.58
673.61	22040.82
673.75	21970.61
673.89	21834.86
674.03	21923.80
674.17	21972.95
674.31	21750.60
674.45	21855.92
674.59	21666.34
674.73	21914.44
674.87	21586.76
675.01	21341.00
675.15	21352.71
675.29	21376.11
675.43	21404.20
675.56	21411.22
675.70	21385.47
675.84	21553.99
675.98	20638.84
676.12	21298.88
676.26	21448.67
676.40	21025.03
676.54	21064.82
676.68	21053.12
676.82	20390.75
676.96	20910.35
677.10	20439.90
677.23	20505.43
677.37	20620.12
677.51	20783.96
677.65	20741.83
677.79	20549.90
677.93	20360.32
678.07	20360.32
678.21	20175.42
678.34	20154.35
678.48	19983.49
678.62	20208.19
678.76	20163.72
678.90	20240.95
679.04	19889.87
679.18	20100.52
679.31	19761.14
679.45	19604.33
679.59	19548.15
679.73	19330.48
679.87	19646.46
680.00	19587.94
680.14	19410.06
680.28	19218.14
680.42	19583.26
680.56	19510.71
680.70	19709.65
680.83	19667.52
680.97	19213.46
681.11	19147.92
681.25	19309.42
681.39	19157.28
681.52	18960.68
681.66	18829.61
681.80	18977.06
681.94	18834.29
682.07	18906.85
682.21	18766.42
682.35	18422.36
682.49	18539.38
682.62	18288.95
682.76	18581.51
682.90	18534.70
683.04	18513.64
683.17	18501.93
683.31	18317.03
683.45	18265.54
683.59	18326.39
683.72	18085.32
683.86	18347.46
684.00	17872.33
684.13	17919.14
684.27	17902.76
684.41	17776.37
684.55	17832.54
684.68	17387.84
684.82	17692.11
684.96	17294.22
685.09	17544.66
685.23	17294.22
685.37	17586.79
685.50	17392.52
685.64	17458.06
685.78	17270.81
685.91	17472.10
686.05	17048.46
686.19	17071.87
686.32	17174.85
686.46	17022.72
686.60	16844.84
686.73	16809.73
686.87	16727.81
687.01	17039.10
687.14	16517.16
687.28	16432.90
687.42	16657.59
687.55	16318.22
687.69	16599.08
687.82	16418.86
687.96	16362.69
688.10	16320.56
688.23	16374.39
688.37	16540.57
688.50	16177.78
688.64	16112.25
688.78	15915.64
688.91	16053.73
689.05	15913.30
689.18	15960.11
689.32	15681.59
689.46	15730.74
689.59	15644.14
689.73	15616.05
689.86	15709.68
690.00	15515.41
690.13	15754.15
690.27	15545.84
690.41	15721.38
690.54	15328.17
690.68	15339.87
690.81	15218.16
690.95	15367.96
691.08	15323.49
691.22	15309.44
691.35	15225.18
691.49	15000.49
691.62	15096.46
691.76	15091.77
691.89	14920.92
692.03	14703.25
692.16	14590.90
692.30	14630.69
692.43	14548.77
692.57	14413.02
692.70	14490.26
692.84	14450.47
692.97	14274.93
693.11	14539.41
693.24	14480.89
693.38	14284.29
693.51	14190.67
693.65	14136.84
693.78	14281.95
693.92	14001.08
694.05	14012.79
694.19	13865.33
694.32	13902.78
694.45	14057.26
694.59	13530.64
694.72	13465.10
694.86	13547.02
694.99	13366.80
695.13	13844.27
695.26	13542.34
695.39	13472.12
695.53	13593.83
695.66	13401.91
695.80	13404.25
695.93	13387.86
696.07	13022.74
696.20	13415.95
696.33	13071.89
696.47	13121.04
696.60	12940.82
696.73	13097.64
696.87	12943.16
697.00	12940.82
697.14	12573.36
697.27	12617.83
697.40	12500.80
697.54	12704.43
697.67	12655.28
697.80	12383.77
697.94	12484.42
698.07	12400.16
698.21	12238.66
698.34	12285.47
698.47	12461.01
698.61	12439.95
698.74	12369.73
698.87	12339.30
699.01	12018.65
699.14	11964.82
699.27	11896.94
699.40	11985.88
699.54	12145.04
699.67	11733.11
699.80	11810.34
699.94	11784.60
700.07	11929.71
700.20	11559.91
700.34	11508.41
700.47	11459.26
700.60	11480.33
700.73	11421.81
700.87	11620.76
701.00	11602.04
701.13	11405.43
701.26	11304.79
701.40	11452.24
701.53	11389.05
701.66	11377.34
701.79	10740.72
701.93	11082.44
702.06	10967.75
702.19	10799.23
702.32	10857.75
702.46	10869.45
702.59	10785.19
702.72	10609.65
702.85	10740.72
702.99	10602.63
703.12	10509.01
703.25	10766.46
703.38	10569.86
703.51	10509.01
703.65	10429.43
703.78	10244.52
703.91	10497.30
704.04	10644.76
704.17	10403.68
704.31	10164.95
704.44	10146.22
704.57	10209.42
704.70	10129.84
704.83	10141.54
704.96	10045.58
705.10	9874.72
705.23	9710.88
>>>>>End Processed Spectral Data<<<<<
