SpectraSuite Data File
++++++++++++++++++++++++++++++++++++
Date: Fri Oct 18 13:58:07 GMT-05:00 2013
User: bianchi
Dark Spectrum Present: No
Reference Spectrum Present: No
Number of Sampled Component Spectra: 1
Spectrometers: USB2+H05261
Integration Time (usec): 50000 (USB2+H05261)
Spectra Averaged: 1 (USB2+H05261)
Boxcar Smoothing: 0 (USB2+H05261)
Correct for Electrical Dark: No (USB2+H05261)
Strobe/Lamp Enabled: No (USB2+H05261)
Correct for Detector Non-linearity: No (USB2+H05261)
Correct for Stray Light: No (USB2+H05261)
Number of Pixels in Processed Spectrum: 2048
>>>>>Begin Processed Spectral Data<<<<<
365.73	0.00
365.92	0.00
366.12	0.00
366.32	0.00
366.52	0.00
366.72	0.00
366.91	0.00
367.11	0.00
367.31	0.00
367.51	0.00
367.70	0.00
367.90	0.00
368.10	0.00
368.30	0.00
368.49	0.00
368.69	0.00
368.89	0.00
369.09	0.00
369.28	0.00
369.48	0.00
369.68	0.00
369.87	0.00
370.07	0.00
370.27	0.00
370.47	0.00
370.66	121.71
370.86	81.92
371.06	177.88
371.25	227.03
371.45	140.43
371.65	58.51
371.84	100.64
372.04	177.88
372.24	210.65
372.44	196.60
372.63	159.16
372.83	231.71
373.03	220.01
373.22	257.46
373.42	191.92
373.62	217.67
373.81	280.86
374.01	262.14
374.21	191.92
374.40	269.16
374.60	290.23
374.79	262.14
374.99	203.63
375.19	241.08
375.38	264.48
375.58	252.78
375.78	229.37
375.97	212.99
376.17	353.42
376.37	311.29
376.56	322.99
376.76	269.16
376.95	257.46
377.15	264.48
377.35	245.76
377.54	306.61
377.74	278.52
377.93	138.09
378.13	266.82
378.33	348.74
378.52	344.06
378.72	280.86
378.91	297.25
379.11	308.95
379.31	278.52
379.50	304.27
379.70	287.89
379.89	259.80
380.09	262.14
380.28	327.68
380.48	372.15
380.68	327.68
380.87	220.01
381.07	330.02
381.26	229.37
381.46	400.23
381.65	315.97
381.85	390.87
382.04	369.80
382.24	290.23
382.43	381.51
382.63	348.74
382.83	360.44
383.02	341.72
383.22	330.02
383.41	355.76
383.61	353.42
383.80	308.95
384.00	437.68
384.19	381.51
384.39	390.87
384.58	367.46
384.78	334.70
384.97	376.83
385.17	362.78
385.36	344.06
385.56	454.06
385.75	421.30
385.95	395.55
386.14	440.02
386.34	374.49
386.53	318.31
386.72	360.44
386.92	400.23
387.11	411.93
387.31	428.32
387.50	421.30
387.70	444.70
387.89	411.93
388.09	428.32
388.28	411.93
388.48	411.93
388.67	482.15
388.86	465.77
389.06	407.25
389.25	524.28
389.45	409.59
389.64	440.02
389.84	428.32
390.03	465.77
390.22	505.56
390.42	521.94
390.61	458.74
390.81	437.68
391.00	447.04
391.19	442.36
391.39	517.26
391.58	472.79
391.78	477.47
391.97	479.81
392.16	503.22
392.36	514.92
392.55	571.09
392.75	599.18
392.94	613.22
393.13	458.74
393.33	545.34
393.52	547.69
393.71	606.20
393.91	550.03
394.10	578.11
394.29	578.11
394.49	486.83
394.68	601.52
394.88	603.86
395.07	699.82
395.26	557.05
395.46	617.90
395.65	578.11
395.84	653.01
396.04	631.94
396.23	610.88
396.42	615.56
396.62	723.23
396.81	561.73
397.00	660.03
397.19	648.33
397.39	589.82
397.58	730.25
397.77	613.22
397.97	657.69
398.16	674.07
398.35	699.82
398.55	704.50
398.74	650.67
398.93	718.54
399.12	631.94
399.32	746.63
399.51	690.46
399.70	807.48
399.90	786.42
400.09	784.08
400.28	800.46
400.47	795.78
400.67	795.78
400.86	805.14
401.05	786.42
401.24	716.20
401.44	837.91
401.63	800.46
401.82	847.27
402.01	798.12
402.21	798.12
402.40	828.55
402.59	781.74
402.78	873.02
402.97	924.51
403.17	866.00
403.36	849.61
403.55	894.08
403.74	894.08
403.93	999.41
404.13	936.21
404.32	882.38
404.51	954.94
404.70	861.32
404.89	1039.20
405.09	908.13
405.28	1008.77
405.47	866.00
405.66	903.45
405.85	1011.11
406.05	999.41
406.24	856.64
406.43	1022.81
406.62	1057.92
406.81	1081.33
407.00	1004.09
407.20	1060.26
407.39	1043.88
407.58	1097.71
407.77	1025.15
407.96	1004.09
408.15	1121.12
408.34	1086.01
408.54	1069.62
408.73	1078.99
408.92	1050.90
409.11	1193.67
409.30	1078.99
409.49	1158.57
409.68	1081.33
409.87	1055.58
410.07	1137.50
410.26	1158.57
410.45	1116.44
410.64	1172.61
410.83	1212.40
411.02	1196.01
411.21	1355.17
411.40	1299.00
411.59	1193.67
411.78	1254.53
411.98	1259.21
412.17	1219.42
412.36	1228.78
412.55	1306.02
412.74	1362.19
412.93	1387.94
413.12	1479.22
413.31	1404.32
413.50	1362.19
413.69	1411.34
413.88	1437.09
414.07	1448.79
414.26	1394.96
414.45	1535.39
414.64	1458.15
414.83	1593.90
415.02	1654.76
415.22	1509.65
415.41	1598.59
415.60	1533.05
415.79	1610.29
415.98	1542.41
416.17	1624.33
416.36	1565.82
416.55	1535.39
416.74	1736.68
416.93	1682.85
417.12	1703.91
417.31	1603.27
417.50	1694.55
417.69	1762.42
417.88	1748.38
418.07	1750.72
418.26	1701.57
418.45	1863.07
418.64	1933.28
418.83	1795.19
419.02	1830.30
419.21	1799.87
419.39	1783.49
419.58	1687.53
419.77	1696.89
419.96	1919.24
420.15	1874.77
420.34	1839.66
420.53	1898.17
420.72	1895.83
420.91	1870.09
421.10	1900.52
421.29	1984.77
421.48	1858.39
421.67	2019.88
421.86	1949.67
422.05	1928.60
422.24	1921.58
422.43	1865.41
422.61	1961.37
422.80	2062.01
422.99	2015.20
423.18	2015.20
423.37	2078.40
423.56	1935.62
423.75	2069.03
423.94	1865.41
424.13	1881.79
424.32	1863.07
424.50	2012.86
424.69	1980.09
424.88	2087.76
425.07	2038.61
425.26	2062.01
425.45	2080.74
425.64	2017.54
425.83	2052.65
426.01	2062.01
426.20	2092.44
426.39	2122.87
426.58	2008.18
426.77	2022.22
426.96	2118.18
427.15	2057.33
427.33	2183.72
427.52	2113.50
427.71	2186.06
427.90	2193.08
428.09	2136.91
428.28	2188.40
428.46	2232.87
428.65	2174.36
428.84	2277.34
429.03	2305.43
429.22	2246.91
429.40	2377.98
429.59	2200.10
429.78	2139.25
429.97	2176.70
430.16	2244.57
430.34	2291.38
430.53	2230.53
430.72	2380.32
430.91	2377.98
431.10	2312.45
431.28	2340.54
431.47	2396.71
431.66	2429.48
431.85	2253.94
432.03	2483.31
432.22	2546.50
432.41	2487.99
432.60	2408.41
432.79	2525.44
432.97	2417.77
433.16	2476.29
433.35	2385.01
433.54	2525.44
433.72	2586.29
433.91	2478.63
434.10	2574.59
434.28	2553.52
434.47	2689.28
434.66	2574.59
434.85	2656.51
435.03	2670.55
435.22	2574.59
435.41	2633.10
435.59	2768.85
435.78	2651.83
435.97	2644.81
436.16	2619.06
436.34	2796.94
436.53	2719.70
436.72	2862.48
436.90	2675.23
437.09	2843.75
437.28	2818.00
437.46	2719.70
437.65	2733.75
437.84	2855.45
438.02	2724.38
438.21	2869.50
438.40	2616.72
438.58	2841.41
438.77	2937.37
438.96	2829.71
439.14	2916.31
439.33	2937.37
439.52	2986.52
439.70	3009.93
439.89	3038.02
440.08	2998.23
440.26	3082.49
440.45	2970.14
440.63	3066.10
440.82	3089.51
441.01	3166.74
441.19	3129.30
441.38	3225.26
441.57	3267.39
441.75	3236.96
441.94	3332.92
442.12	3279.09
442.31	3363.35
442.50	3356.33
442.68	3396.12
442.87	3358.67
443.05	3482.72
443.24	3428.88
443.43	3361.01
443.61	3325.90
443.80	3499.10
443.98	3361.01
444.17	3199.51
444.35	3545.91
444.54	3358.67
444.73	3414.84
444.91	3353.99
445.10	3496.76
445.28	3466.33
445.47	3386.76
445.65	3468.67
445.84	3571.66
446.02	3529.53
446.21	3513.14
446.39	3393.78
446.58	3447.61
446.77	3583.36
446.95	3515.48
447.14	3524.85
447.32	3475.70
447.51	3508.46
447.69	3576.34
447.88	3363.35
448.06	3454.63
448.25	3590.38
448.43	3616.13
448.62	3440.59
448.80	3611.45
448.99	3538.89
449.17	3499.10
449.36	3665.28
449.54	3772.94
449.73	3770.60
449.91	3831.46
450.10	3672.30
450.28	3749.54
450.46	3749.54
450.65	3714.43
450.83	3712.09
451.02	3669.96
451.20	3761.24
451.39	3669.96
451.57	3709.75
451.76	3770.60
451.94	3805.71
452.13	3784.65
452.31	3899.33
452.49	3925.08
452.68	3962.53
452.86	3896.99
453.05	3934.44
453.23	3875.93
453.42	3995.29
453.60	3878.27
453.78	4121.68
453.97	3896.99
454.15	4014.02
454.34	3908.69
454.52	4044.45
454.70	3939.12
454.89	3920.40
455.07	4004.66
455.26	3983.59
455.44	4154.45
455.62	3904.01
455.81	4124.02
455.99	4194.24
456.17	4259.78
456.36	4149.77
456.54	4119.34
456.73	4337.01
456.91	4313.61
457.09	4264.46
457.28	4491.49
457.46	4222.33
457.64	4414.25
457.83	4477.44
458.01	4278.50
458.19	4472.76
458.38	4339.35
458.56	4393.19
458.74	4514.89
458.93	4461.06
459.11	4524.26
459.29	4374.46
459.48	4425.95
459.66	4376.80
459.84	4613.20
460.03	4662.35
460.21	4456.38
460.39	4491.49
460.57	4566.39
460.76	4566.39
460.94	4615.54
461.12	4723.20
461.31	4842.57
461.49	4624.90
461.67	4610.86
461.85	4814.48
462.04	4812.14
462.22	4908.10
462.40	4858.95
462.59	4695.11
462.77	4788.74
462.95	4814.48
463.13	4760.65
463.32	4990.02
463.50	4940.87
463.68	4929.17
463.86	4819.16
464.05	4873.00
464.23	4809.80
464.41	4950.23
464.59	4903.42
464.78	5069.60
464.96	4952.57
465.14	5004.07
465.32	5055.56
465.50	4936.19
465.69	5247.48
465.87	5055.56
466.05	5181.95
466.23	5008.75
466.41	5156.20
466.60	5137.48
466.78	5043.85
466.96	5109.39
467.14	5064.92
467.32	5205.35
467.51	5273.23
467.69	5015.77
467.87	5210.03
468.05	5184.29
468.23	5198.33
468.41	5191.31
468.60	5177.26
468.78	5289.61
468.96	5296.63
469.14	5273.23
469.32	5437.06
469.50	5273.23
469.69	5329.40
469.87	5500.26
470.05	5394.93
470.23	5469.83
470.41	5280.25
470.59	5643.03
470.77	5343.44
470.95	5357.49
471.14	5523.66
471.32	5462.81
471.50	5633.67
471.68	5734.31
471.86	5561.11
472.04	5645.37
472.22	5977.73
472.40	5685.16
472.58	5797.51
472.77	5710.91
472.95	5818.57
473.13	5933.26
473.31	5834.96
473.49	5853.68
473.67	5994.11
473.85	5825.59
474.03	5881.77
474.21	5961.34
474.39	6153.27
474.57	5984.75
474.75	6169.65
474.93	6235.19
475.12	6202.42
475.30	6197.74
475.48	6340.51
475.66	6333.49
475.84	6267.95
476.02	6445.84
476.20	6459.88
476.38	6431.79
476.56	6569.88
476.74	6565.20
476.92	6410.73
477.10	6480.94
477.28	6637.76
477.46	6815.64
477.64	6766.49
477.82	6792.23
478.00	7101.19
478.18	6839.05
478.36	7119.91
478.54	7042.67
478.72	7070.76
478.90	7068.42
479.08	7234.60
479.26	7166.72
479.44	7555.25
479.62	7372.69
479.80	7445.24
479.98	7358.64
480.16	7599.72
480.34	7454.61
480.52	7662.91
480.70	7763.56
480.88	7644.19
481.06	7749.51
481.24	7705.04
481.41	7803.35
481.59	8112.30
481.77	8086.55
481.95	7943.78
482.13	8063.15
482.31	8112.30
482.49	8264.43
482.67	8294.86
482.85	8549.98
483.03	8606.15
483.21	8521.89
483.39	8709.13
483.57	8517.21
483.74	8681.05
483.92	8608.49
484.10	8669.34
484.28	9163.20
484.46	9158.52
484.64	9238.09
484.82	9128.09
485.00	9181.92
485.18	9542.36
485.35	9427.68
485.53	9341.08
485.71	9495.55
485.89	9865.36
486.07	9675.77
486.25	9614.92
486.43	9671.09
486.61	9654.71
486.78	9961.32
486.96	9975.36
487.14	10319.42
487.32	10436.45
487.50	10310.06
487.68	10289.00
487.85	10417.72
488.03	10738.38
488.21	10747.74
488.39	10642.42
488.57	10703.27
488.75	10689.23
488.92	11162.01
489.10	11098.82
489.28	10892.85
489.46	10890.51
489.64	11190.10
489.81	11510.75
489.99	11485.01
490.17	11396.07
490.35	11351.60
490.53	11754.17
490.70	11583.31
490.88	11702.68
491.06	11852.47
491.24	11716.72
491.41	11974.18
491.59	11843.11
491.77	12058.44
491.95	12229.30
492.13	12184.83
492.30	12388.46
492.48	12395.48
492.66	12519.53
492.84	12308.88
493.01	12809.75
493.19	12662.30
493.37	12844.86
493.54	13095.30
493.72	12861.24
493.90	12671.66
494.08	13025.08
494.25	13359.78
494.43	13188.92
494.61	13226.37
494.79	13350.42
494.96	13348.08
495.14	13422.97
495.32	13289.56
495.49	13813.84
495.67	13970.66
495.85	14068.96
496.02	13858.31
496.20	13994.06
496.38	14134.50
496.55	14101.73
496.73	14373.23
496.91	14417.70
497.09	14253.86
497.26	14511.32
497.44	14497.28
497.62	14471.53
497.79	14588.56
497.97	14424.72
498.14	14602.60
498.32	14897.51
498.50	14867.08
498.67	15122.20
498.85	15007.52
499.03	15080.07
499.20	14913.89
499.38	15344.55
499.56	15461.58
499.73	15454.56
499.91	15417.11
500.08	15632.44
500.26	15524.77
500.44	15456.90
500.61	15606.69
500.79	15669.89
500.97	15805.64
501.14	16042.03
501.32	16077.14
501.49	16093.52
501.67	15939.05
501.84	15990.54
502.02	15922.66
502.20	16243.32
502.37	16430.56
502.55	16123.95
502.72	16442.26
502.90	16421.20
503.07	16580.36
503.25	16622.48
503.43	16468.01
503.60	16629.51
503.78	16753.55
503.95	16652.91
504.13	16638.87
504.30	16776.96
504.48	16622.48
504.65	16762.92
504.83	17053.14
505.01	17085.91
505.18	17373.80
505.36	17296.56
505.53	17177.19
505.71	17399.54
505.88	17415.93
506.06	17188.89
506.23	17364.43
506.41	17291.88
506.58	17657.00
506.76	17614.87
506.93	17507.21
507.11	17652.32
507.28	17640.62
507.46	17582.10
507.63	18057.23
507.81	17645.30
507.98	17998.72
508.16	17942.55
508.33	17937.87
508.50	17877.01
508.68	18010.42
508.85	18181.28
509.03	18274.90
509.20	18171.92
509.38	18373.21
509.55	18625.98
509.73	18356.82
509.90	18637.69
510.08	18384.91
510.25	18242.14
510.42	18740.67
510.60	18700.88
510.77	18682.16
510.95	18794.50
511.12	18960.68
511.30	18672.79
511.47	18731.31
511.64	19012.17
511.82	19187.71
511.99	18995.79
512.17	19269.63
512.34	19168.99
512.51	19311.76
512.69	19524.75
512.86	19672.20
513.04	19824.34
513.21	19730.72
513.38	19477.94
513.56	19618.37
513.73	19908.60
513.90	19702.63
514.08	19580.92
514.25	19576.24
514.43	19817.32
514.60	19901.58
514.77	19826.68
514.95	19969.45
515.12	19960.09
515.29	20018.60
515.47	19967.11
515.64	19962.43
515.81	20180.10
515.99	20418.83
516.16	20475.01
516.33	20411.81
516.51	20460.96
516.68	20318.19
516.85	20290.10
517.03	20793.32
517.20	20786.30
517.37	20538.20
517.54	20695.02
517.72	20650.55
517.89	20730.12
518.06	21071.84
518.24	20610.76
518.41	20774.60
518.58	20856.51
518.75	21083.55
518.93	21348.03
519.10	21132.70
519.27	21228.66
519.45	21266.11
519.62	21460.37
519.79	21146.74
519.96	21081.21
520.14	21525.91
520.31	21511.86
520.48	21673.36
520.65	21612.51
520.83	21493.14
521.00	21436.97
521.17	21490.80
521.34	21645.27
521.52	21575.06
521.69	21851.24
521.86	21879.33
522.03	22106.36
522.20	22202.32
522.38	22305.31
522.55	21921.46
522.72	21928.48
522.89	22293.60
523.07	22298.28
523.24	22118.06
523.41	22494.89
523.58	22054.87
523.75	22562.76
523.92	21958.91
524.10	22471.48
524.27	22293.60
524.44	22731.28
524.61	22918.53
524.78	22492.55
524.96	22497.23
525.13	22848.31
525.30	22567.45
525.47	22874.06
525.64	22391.91
525.81	22951.29
525.98	22979.38
526.16	22918.53
526.33	22923.21
526.50	23297.69
526.67	23094.07
526.84	23344.50
527.01	23098.75
527.18	23122.15
527.36	23005.13
527.53	23454.51
527.70	23618.35
527.87	23618.35
528.04	23428.76
528.21	23569.19
528.38	23428.76
528.55	23381.95
528.72	23498.98
528.89	23506.00
529.07	23805.59
529.24	23414.72
529.41	23482.59
529.58	23737.71
529.75	23604.30
529.92	23779.84
530.09	23594.94
530.26	23857.08
530.43	23859.42
530.60	23838.36
530.77	24006.87
530.94	23833.68
531.11	23730.69
531.28	23974.11
531.46	23971.77
531.63	24343.91
531.80	24013.90
531.97	24376.68
532.14	24451.58
532.31	24416.47
532.48	24259.65
532.65	24528.81
532.82	24201.14
532.99	24451.58
533.16	24463.28
533.33	24404.77
533.50	24716.06
533.67	24730.10
533.84	24627.12
534.01	24561.58
534.18	24269.01
534.35	24620.10
534.52	24479.66
534.69	24893.94
534.86	25017.99
535.03	24634.14
535.20	24999.26
535.37	24788.61
535.54	25015.65
535.71	24847.13
535.88	25020.33
536.05	24980.54
536.22	25280.13
536.38	25460.35
536.55	24816.70
536.72	25448.64
536.89	25163.10
537.06	25034.37
537.23	25296.51
537.40	25399.49
537.57	25528.22
537.74	25294.17
537.91	25792.70
538.08	25326.94
538.25	25413.54
538.42	25729.51
538.59	25858.24
538.75	25610.14
538.92	25294.17
539.09	25497.80
539.26	25647.59
539.43	25666.31
539.60	25806.75
539.77	25708.44
539.94	26066.55
540.11	25898.03
540.28	25741.21
540.44	25507.16
540.61	25820.79
540.78	25614.82
540.95	25790.36
541.12	26141.44
541.29	26082.93
541.46	26359.11
541.62	25991.65
541.79	26459.76
541.96	26118.04
542.13	25825.47
542.30	26412.95
542.47	26167.19
542.63	26148.46
542.80	26513.59
542.97	26569.76
543.14	26932.54
543.31	26471.46
543.48	26246.77
543.64	26602.53
543.81	27077.66
543.98	26941.91
544.15	26443.37
544.32	26911.48
544.48	26920.84
544.65	27091.70
544.82	26801.47
544.99	26691.47
545.16	26857.65
545.32	26340.39
545.49	27056.59
545.66	27084.68
545.83	27725.99
546.00	27115.11
546.16	26775.73
546.33	26820.20
546.50	26295.92
546.67	27136.17
546.83	26951.27
547.00	27227.45
547.17	27225.11
547.34	27440.44
547.50	27704.92
547.67	27154.90
547.84	27300.01
548.00	27199.37
548.17	27735.35
548.34	27510.66
548.51	27824.29
548.67	27321.07
548.84	27398.31
549.01	27505.98
549.18	27573.85
549.34	27758.75
549.51	27463.85
549.68	27880.46
549.84	27494.27
550.01	27449.80
550.18	27410.01
550.34	27826.63
550.51	28100.47
550.68	27969.40
550.84	27459.16
551.01	27688.54
551.18	27288.31
551.34	27754.07
551.51	27758.75
551.68	27988.13
551.84	28257.29
552.01	27676.83
552.18	28013.87
552.34	27885.14
552.51	28002.17
552.68	27941.32
552.84	28252.61
553.01	28081.75
553.18	27955.36
553.34	28137.92
553.51	27974.08
553.67	28549.85
553.84	28376.66
554.01	28100.47
554.17	27861.74
554.34	28327.50
554.51	28240.90
554.67	28428.15
554.84	28617.73
555.00	28247.93
555.17	28350.91
555.33	28589.64
555.50	28570.92
555.67	28650.50
555.83	28231.54
556.00	28512.41
556.16	28678.58
556.33	28189.41
556.50	28442.19
556.66	28575.60
556.83	28526.45
556.99	28599.01
557.16	28861.15
557.32	28828.38
557.49	28835.40
557.65	28276.01
557.82	28753.48
557.98	28746.46
558.15	28676.24
558.32	28287.71
558.48	28774.55
558.65	28989.88
558.81	29385.43
558.98	29102.22
559.14	28999.24
559.31	28982.85
559.47	29006.26
559.64	28891.57
559.80	29039.03
559.97	29046.05
560.13	28868.17
560.30	28947.75
560.46	29032.00
560.63	29305.85
560.79	28914.98
560.96	29305.85
561.12	28943.06
561.29	29184.14
561.45	28896.25
561.61	29235.63
561.78	29434.58
561.94	28952.43
562.11	29076.48
562.27	29001.58
562.44	29266.06
562.60	29294.14
562.77	29149.03
562.93	29235.63
563.10	29631.18
563.26	29259.04
563.42	29343.30
563.59	29247.33
563.75	29226.27
563.92	29212.23
564.08	29308.19
564.24	29273.08
564.41	29132.65
564.57	29663.95
564.74	29441.60
564.90	29249.67
565.07	29301.17
565.23	29668.63
565.39	29607.78
565.56	29816.08
565.72	29453.30
565.88	29427.56
566.05	29301.17
566.21	29413.51
566.38	29535.22
566.54	29495.43
566.70	29923.75
566.87	29937.79
567.03	29783.32
567.19	29937.79
567.36	29912.05
567.52	29422.87
567.68	29839.49
567.85	29495.43
568.01	29680.33
568.17	29603.10
568.34	29680.33
568.50	30036.09
568.66	29600.76
568.83	29752.89
568.99	29816.08
569.15	29799.70
569.32	29755.23
569.48	29551.60
569.64	29518.84
569.81	29893.32
569.97	30078.22
570.13	30218.66
570.30	29912.05
570.46	30022.05
570.62	29729.48
570.78	29603.10
570.95	29656.93
571.11	29799.70
571.27	29525.86
571.43	29675.65
571.60	29907.37
571.76	30132.06
571.92	29832.47
572.09	30101.63
572.25	30019.71
572.41	29940.13
572.57	30230.36
572.74	29900.34
572.90	29989.28
573.06	29326.91
573.22	29816.08
573.38	29652.25
573.55	29724.80
573.71	29956.52
573.87	30429.30
574.03	29935.45
574.20	30373.13
574.36	30038.44
574.52	30066.52
574.68	30096.95
574.84	29989.28
575.01	29914.39
575.17	30160.14
575.33	29961.20
575.49	30082.91
575.65	29867.58
575.82	30087.59
575.98	30045.46
576.14	30024.39
576.30	29935.45
576.46	30054.82
576.62	30213.98
576.79	30017.37
576.95	29909.71
577.11	30260.79
577.27	30139.08
577.43	30356.75
577.59	30134.40
577.75	30078.22
577.92	29490.75
578.08	29855.87
578.24	29797.36
578.40	29858.21
578.56	30106.31
578.72	30251.42
578.88	30321.64
579.04	30373.13
579.21	30059.50
579.37	30178.87
579.53	30300.58
579.69	29902.68
579.85	30216.32
580.01	30216.32
580.17	29776.30
580.33	30202.27
580.49	30073.54
580.65	29986.94
580.82	30305.26
580.98	30436.33
581.14	30302.92
581.30	30284.19
581.46	30609.53
581.62	30101.63
581.78	30164.82
581.94	30218.66
582.10	30040.78
582.26	30045.46
582.42	29961.20
582.58	30040.78
582.74	30249.08
582.90	30059.50
583.06	29982.26
583.22	30452.71
583.38	30188.23
583.54	30394.20
583.70	30284.19
583.86	30469.09
584.02	30490.16
584.18	30078.22
584.34	30731.23
584.50	30761.66
584.66	30499.52
584.82	30382.49
584.98	30136.74
585.14	30438.67
585.30	30103.97
585.46	30096.95
585.62	30075.88
585.78	30429.30
585.94	30052.48
586.10	30604.84
586.26	30424.62
586.42	30373.13
586.58	30396.54
586.74	30270.15
586.90	29734.17
587.06	30560.37
587.22	30300.58
587.38	30302.92
587.54	30356.75
587.70	30778.04
587.86	30382.49
588.02	30433.99
588.18	30658.68
588.34	30572.08
588.49	30331.00
588.65	30331.00
588.81	30326.32
588.97	30335.68
589.13	30375.47
589.29	30382.49
589.45	30457.39
589.61	30525.27
589.77	30984.01
589.93	30785.07
590.08	30476.12
590.24	30478.46
590.40	30646.97
590.56	30866.98
590.72	30588.46
590.88	30359.09
591.04	30448.03
591.20	30969.97
591.35	30789.75
591.51	30778.04
591.67	31044.87
591.83	31175.94
591.99	30960.61
592.15	30913.80
592.31	30572.08
592.46	30436.33
592.62	30628.25
592.78	30338.02
592.94	30845.92
593.10	30576.76
593.26	30979.33
593.41	30691.44
593.57	31068.27
593.73	30850.60
593.89	31042.53
594.05	31063.59
594.20	31012.10
594.36	30857.62
594.52	30567.40
594.68	30679.74
594.84	30433.99
594.99	30546.33
595.15	30717.19
595.31	31234.45
595.47	30600.16
595.62	30895.07
595.78	30714.85
595.94	30986.35
596.10	30539.31
596.25	30604.84
596.41	30305.26
596.57	30691.44
596.73	30630.59
596.88	30693.79
597.04	31005.08
597.20	30675.06
597.36	31028.48
597.51	31016.78
597.67	30661.02
597.83	30841.24
597.99	30670.38
598.14	30878.69
598.30	30553.35
598.46	30628.25
598.61	30852.94
598.77	30916.14
598.93	31274.24
599.09	31208.70
599.24	31021.46
599.40	31033.16
599.56	30787.41
599.71	31005.08
599.87	31211.04
600.03	30946.56
600.18	30761.66
600.34	31028.48
600.50	31335.09
600.65	30923.16
600.81	30796.77
600.97	30984.01
601.12	31204.02
601.28	31019.12
601.44	31087.00
601.59	31236.79
601.75	30782.73
601.91	31002.74
602.06	30939.54
602.22	31030.82
602.37	30401.22
602.53	30930.18
602.69	31115.08
602.84	30972.31
603.00	30726.55
603.16	31054.23
603.31	30855.28
603.47	31035.50
603.62	31159.55
603.78	30834.22
603.94	31164.23
604.09	30792.09
604.25	30881.03
604.40	30735.92
604.56	30857.62
604.71	30808.47
604.87	30766.34
605.03	31185.30
605.18	30991.03
605.34	31087.00
605.49	30967.63
605.65	30909.11
605.80	30604.84
605.96	30658.68
606.12	30733.57
606.27	30560.37
606.43	30724.21
606.58	31150.19
606.74	30979.33
606.89	30768.68
607.05	31180.62
607.20	30693.79
607.36	30799.11
607.51	31143.17
607.67	30686.76
607.82	30829.54
607.98	30766.34
608.13	31026.14
608.29	30525.27
608.44	30665.70
608.60	30850.60
608.75	31051.89
608.91	30829.54
609.06	30682.08
609.22	31030.82
609.37	30424.62
609.53	30785.07
609.68	30724.21
609.84	30745.28
609.99	30478.46
610.15	30817.83
610.30	30766.34
610.46	30899.75
610.61	30555.69
610.76	30941.88
610.92	30700.81
611.07	30866.98
611.23	30649.32
611.38	30754.64
611.54	30040.78
611.69	30787.41
611.84	29752.89
612.00	30235.04
612.15	30387.18
612.31	30590.80
612.46	30223.34
612.62	30864.64
612.77	30541.65
612.92	30459.73
613.08	30637.61
613.23	30478.46
613.39	30274.83
613.54	30616.55
613.69	30380.15
613.85	30089.93
614.00	30375.47
614.15	30560.37
614.31	30103.97
614.46	30499.52
614.62	30586.12
614.77	30176.53
614.92	30745.28
615.08	30267.81
615.23	30134.40
615.38	30455.05
615.54	30251.42
615.69	30169.51
615.84	30263.13
616.00	30314.62
616.15	30061.84
616.30	30136.74
616.46	30068.86
616.61	30181.21
616.76	30792.09
616.92	30045.46
617.07	30157.80
617.22	30031.41
617.37	29947.15
617.53	30279.51
617.68	30008.01
617.83	29867.58
617.99	29696.72
618.14	30099.29
618.29	29977.58
618.45	29748.21
618.60	30183.55
618.75	30347.39
618.90	30045.46
619.06	30141.42
619.21	30064.18
619.36	29860.55
619.51	29834.81
619.67	29780.98
619.82	29890.98
619.97	29982.26
620.12	29696.72
620.28	29722.46
620.43	29792.68
620.58	30054.82
620.73	30209.29
620.89	29832.47
621.04	29886.30
621.19	30171.85
621.34	29551.60
621.49	29432.24
621.65	29551.60
621.80	29738.85
621.95	29209.89
622.10	29708.42
622.25	29516.50
622.41	29881.62
622.56	29546.92
622.71	29612.46
622.86	29797.36
623.01	29638.20
623.16	29549.26
623.32	29240.31
623.47	29219.25
623.62	29343.30
623.77	29415.85
623.92	29844.17
624.07	29591.39
624.23	29427.56
624.38	29795.02
624.53	29200.52
624.68	29748.21
624.83	29713.10
624.98	29947.15
625.13	29759.91
625.29	29472.03
625.44	29434.58
625.59	28863.49
625.74	28996.90
625.89	28849.44
626.04	29315.21
626.19	28830.72
626.34	29284.78
626.49	28554.54
626.65	29113.92
626.80	29448.62
626.95	29268.40
627.10	29340.96
627.25	29254.36
627.40	28718.37
627.55	28491.34
627.70	28868.17
627.85	28816.68
628.00	28657.52
628.15	29088.18
628.30	29209.89
628.45	28772.21
628.60	28346.23
628.76	28858.81
628.91	29263.72
629.06	28800.29
629.21	28926.68
629.36	28758.16
629.51	28741.78
629.66	28615.39
629.81	28606.03
629.96	28561.56
630.11	28421.13
630.26	28540.49
630.41	28376.66
630.56	28437.51
630.71	28446.87
630.86	28772.21
631.01	28201.11
631.16	28793.27
631.31	28491.34
631.46	28086.43
631.61	28720.71
631.76	28650.50
631.91	28486.66
632.06	28559.22
632.21	28367.29
632.36	28404.74
632.51	28346.23
632.66	28266.65
632.81	28477.30
632.96	28587.30
633.10	28077.07
633.25	28357.93
633.40	28414.10
633.55	28301.76
633.70	28161.33
633.85	28072.39
634.00	27679.18
634.15	27978.76
634.30	27903.87
634.45	28184.73
634.60	27950.68
634.75	28390.70
634.90	28273.67
635.05	28313.46
635.19	27693.22
635.34	28531.13
635.49	28006.85
635.64	28151.96
635.79	27999.83
635.94	28088.77
636.09	27796.20
636.24	27744.71
636.39	27714.28
636.53	27711.94
636.68	27630.02
636.83	27716.62
636.98	28077.07
637.13	28151.96
637.28	27864.08
637.43	27828.97
637.57	28126.22
637.72	27639.39
637.87	27995.15
638.02	27950.68
638.17	27920.25
638.32	27452.14
638.46	27475.55
638.61	27433.42
638.76	27323.41
638.91	27374.91
639.06	27714.28
639.20	27887.48
639.35	27964.72
639.50	27875.78
639.65	27566.83
639.80	27527.04
639.94	27545.76
640.09	27594.92
640.24	27424.06
640.39	27505.98
640.54	27016.80
640.68	27452.14
640.83	27620.66
640.98	27475.55
641.13	27274.26
641.27	27690.88
641.42	27082.34
641.57	27407.67
641.72	27388.95
641.86	27608.96
642.01	27791.52
642.16	27414.69
642.31	27103.40
642.45	27433.42
642.60	27094.04
642.75	27089.36
642.90	27016.80
643.04	26960.63
643.19	27302.35
643.34	26993.40
643.48	27297.67
643.63	27133.83
643.78	27192.34
643.93	27335.12
644.07	27108.08
644.22	27295.33
644.37	27075.32
644.51	27192.34
644.66	26764.03
644.81	26794.45
644.95	26745.30
645.10	26981.70
645.25	26815.52
645.39	26707.85
645.54	26988.72
645.69	26822.54
645.83	26960.63
645.98	26658.70
646.13	26838.92
646.27	26721.90
646.42	26579.12
646.57	26841.26
646.71	26958.29
646.86	27063.61
647.00	26579.12
647.15	26845.94
647.30	26567.42
647.44	26412.95
647.59	26824.88
647.74	26417.63
647.88	26822.54
648.03	26579.12
648.17	26738.28
648.32	26925.52
648.47	26672.74
648.61	26824.88
648.76	26342.73
648.90	26689.13
649.05	26656.36
649.20	26340.39
649.34	26214.00
649.49	26129.74
649.63	26558.06
649.78	26312.30
649.92	26288.90
650.07	26370.82
650.21	26534.65
650.36	26225.70
650.51	26398.90
650.65	26022.08
650.80	26455.08
650.94	26347.41
651.09	26235.06
651.23	26157.83
651.38	26195.28
651.52	26178.89
651.67	26209.32
651.81	26546.36
651.96	26490.18
652.10	26068.89
652.25	26087.61
652.39	26148.46
652.54	25907.39
652.68	26307.62
652.83	26485.50
652.97	26326.35
653.12	26218.68
653.26	25895.69
653.41	26335.71
653.55	25701.42
653.70	25921.43
653.84	26001.01
653.99	25883.98
654.13	25933.14
654.27	25635.89
654.42	25773.98
654.56	25666.31
654.71	25921.43
654.85	25706.10
655.00	26244.43
655.14	26157.83
655.29	25825.47
655.43	25891.01
655.57	25898.03
655.72	25584.40
655.86	25589.08
656.01	25663.97
656.15	25750.57
656.30	25373.75
656.44	25685.04
656.58	25364.39
656.73	25600.78
656.87	25759.94
657.01	25476.73
657.16	25893.35
657.30	25525.88
657.45	25537.59
657.59	25656.95
657.73	25411.20
657.88	25380.77
658.02	25357.36
658.16	25245.02
658.31	25273.10
658.45	25392.47
658.60	25151.40
658.74	25390.13
658.88	25502.48
659.03	25282.47
659.17	25308.21
659.31	25308.21
659.46	25191.19
659.60	25329.28
659.74	25165.44
659.89	25083.52
660.03	25301.19
660.17	25083.52
660.32	24786.27
660.46	24912.66
660.60	25200.55
660.74	24844.79
660.89	24753.51
661.03	24575.62
661.17	24627.12
661.32	24414.13
661.46	25074.16
661.60	24854.15
661.74	25240.34
661.89	25230.98
662.03	24917.34
662.17	24697.33
662.31	24669.25
662.46	24453.92
662.60	24549.88
662.74	24346.25
662.88	24486.68
663.03	24243.27
663.17	24357.96
663.31	24219.86
663.45	24217.52
663.60	24355.61
663.74	24292.42
663.88	24327.53
664.02	24718.40
664.17	24126.24
664.31	24269.01
664.45	24170.71
664.59	24070.07
664.73	24009.22
664.88	24053.69
665.02	23997.51
665.16	24091.13
665.30	23669.84
665.44	23805.59
665.59	23887.51
665.73	24006.87
665.87	23576.22
666.01	23770.48
666.15	23707.29
666.29	23744.73
666.44	23728.35
666.58	23473.23
666.72	23606.64
666.86	23679.20
667.00	23718.99
667.14	23517.70
667.28	23388.97
667.43	23412.38
667.57	23618.35
667.71	23342.16
667.85	23213.43
667.99	23187.69
668.13	23414.72
668.27	23201.73
668.41	23089.38
668.56	23068.32
668.70	23260.24
668.84	23349.18
668.98	23396.00
669.12	23285.99
669.26	23136.20
669.40	23023.85
669.54	23096.41
669.68	22988.74
669.82	22831.93
669.96	22871.72
670.10	22534.68
670.25	22693.83
670.39	22731.28
670.53	22836.61
670.67	22738.30
670.81	22679.79
670.95	22618.94
671.09	22630.64
671.23	22522.98
671.37	22595.53
671.51	22974.70
671.65	22665.75
671.79	22595.53
671.93	22429.35
672.07	22429.35
672.21	22314.67
672.35	22209.34
672.49	22183.60
672.63	21921.46
672.77	22064.23
672.91	21900.39
673.05	22071.25
673.19	21916.78
673.33	21837.20
673.47	21933.16
673.61	22078.27
673.75	21844.22
673.89	21769.32
674.03	21874.65
674.17	21523.57
674.31	21476.76
674.45	21673.36
674.59	21675.70
674.73	21727.19
674.87	21514.20
675.01	21142.06
675.15	21479.10
675.29	21188.87
675.43	21355.05
675.56	21273.13
675.70	21420.58
675.84	21032.05
675.98	20706.72
676.12	21003.97
676.26	21298.88
676.40	21186.53
676.54	20975.88
676.68	20933.75
676.82	20589.69
676.96	20568.63
677.10	20767.57
677.23	20418.83
677.37	20383.73
677.51	20669.27
677.65	20372.02
677.79	20257.34
677.93	20365.00
678.07	20217.55
678.21	20219.89
678.34	20130.95
678.48	20245.63
678.62	20161.37
678.76	19999.88
678.90	19875.83
679.04	19756.46
679.18	19983.49
679.31	19784.55
679.45	19318.78
679.59	19456.87
679.73	19627.73
679.87	19309.42
680.00	19583.26
680.14	19309.42
680.28	19255.59
680.42	19138.56
680.56	19342.19
680.70	19199.41
680.83	19220.48
680.97	19353.89
681.11	19047.28
681.25	19033.24
681.39	18876.42
681.52	19026.21
681.66	19021.53
681.80	18544.06
681.94	18761.73
682.07	18712.58
682.21	18305.33
682.35	18501.93
682.49	18319.37
682.62	18581.51
682.76	18672.79
682.90	18359.16
683.04	18202.35
683.17	18272.56
683.31	18115.75
683.45	18405.97
683.59	18057.23
683.72	18321.71
683.86	17905.10
684.00	18237.45
684.13	17628.92
684.27	17846.58
684.41	17916.80
684.55	17799.77
684.68	17121.02
684.82	17600.83
684.96	17291.88
685.09	17242.73
685.23	17369.12
685.37	17408.90
685.50	17558.70
685.64	17399.54
685.78	17394.86
685.91	17427.63
686.05	17528.27
686.19	17177.19
686.32	17149.11
686.46	16863.56
686.60	16879.94
686.73	17071.87
686.87	16608.44
687.01	16449.28
687.14	16561.63
687.28	16533.54
687.42	16601.42
687.55	16320.56
687.69	16360.34
687.82	16519.50
687.96	16238.64
688.10	16119.27
688.23	16283.11
688.37	16159.06
688.50	16152.04
688.64	16191.83
688.78	16201.19
688.91	15667.55
689.05	16159.06
689.18	16016.29
689.32	15782.23
689.46	15627.76
689.59	15627.76
689.73	15803.30
689.86	15499.03
690.00	15660.52
690.13	15515.41
690.27	15414.77
690.41	15721.38
690.54	15506.05
690.68	15403.07
690.81	15571.58
690.95	15407.75
691.08	15391.36
691.22	14916.23
691.35	15061.35
691.49	15199.44
691.62	15119.86
691.76	14841.34
691.89	14747.72
692.03	14595.58
692.16	14829.63
692.30	14633.03
692.43	14567.49
692.57	14548.77
692.70	14544.09
692.84	14413.02
692.97	14333.44
693.11	14083.00
693.24	14537.07
693.38	14202.37
693.51	14211.73
693.65	14281.95
693.78	14265.57
693.92	13951.93
694.05	14169.60
694.19	13991.72
694.32	13647.66
694.45	13715.54
694.59	13809.16
694.72	13586.81
694.86	13291.90
694.99	13568.09
695.13	13511.91
695.26	13626.60
695.39	13429.99
695.53	13385.52
695.66	13507.23
695.80	13544.68
695.93	13394.89
696.07	13589.15
696.20	13107.00
696.33	13156.15
696.47	12898.69
696.60	12975.93
696.73	13156.15
696.87	13071.89
697.00	12964.23
697.14	12945.50
697.27	12699.75
697.40	12524.21
697.54	12451.65
697.67	12362.71
697.80	12283.13
697.94	12421.22
698.07	12222.28
698.21	12301.86
698.34	12205.89
698.47	12241.00
698.61	12084.19
698.74	12341.64
698.87	12456.33
699.01	12039.72
699.14	11847.79
699.27	11829.07
699.40	12023.33
699.54	12056.10
699.67	11875.88
699.80	11735.45
699.94	11681.61
700.07	11627.78
700.20	11438.20
700.34	11370.32
700.47	11318.83
700.60	11412.45
700.73	11393.73
700.87	11239.25
701.00	11403.09
701.13	11297.77
701.26	11218.19
701.40	11255.64
701.53	11066.05
701.66	11126.91
701.79	10860.09
701.93	11110.52
702.06	10944.34
702.19	10951.37
702.32	10939.66
702.46	10628.37
702.59	10810.93
702.72	10672.84
702.85	10750.08
702.99	10707.95
703.12	10569.86
703.25	10347.51
703.38	10586.24
703.51	10368.57
703.65	10527.73
703.78	10265.59
703.91	10207.08
704.04	10525.39
704.17	10239.84
704.31	10211.76
704.44	10113.45
704.57	10377.94
704.70	9961.32
704.83	10005.79
704.96	9893.44
705.10	9872.38
705.23	9926.21
>>>>>End Processed Spectral Data<<<<<
