SpectraSuite Data File
++++++++++++++++++++++++++++++++++++
Date: Fri Oct 18 13:58:41 GMT-05:00 2013
User: bianchi
Dark Spectrum Present: No
Reference Spectrum Present: No
Number of Sampled Component Spectra: 1
Spectrometers: USB2+H05261
Integration Time (usec): 50000 (USB2+H05261)
Spectra Averaged: 1 (USB2+H05261)
Boxcar Smoothing: 0 (USB2+H05261)
Correct for Electrical Dark: No (USB2+H05261)
Strobe/Lamp Enabled: No (USB2+H05261)
Correct for Detector Non-linearity: No (USB2+H05261)
Correct for Stray Light: No (USB2+H05261)
Number of Pixels in Processed Spectrum: 2048
>>>>>Begin Processed Spectral Data<<<<<
365.73	0.00
365.92	0.00
366.12	0.00
366.32	0.00
366.52	0.00
366.72	0.00
366.91	0.00
367.11	0.00
367.31	0.00
367.51	0.00
367.70	0.00
367.90	0.00
368.10	0.00
368.30	0.00
368.49	0.00
368.69	0.00
368.89	0.00
369.09	0.00
369.28	0.00
369.48	0.00
369.68	0.00
369.87	0.00
370.07	0.00
370.27	0.00
370.47	16.38
370.66	60.85
370.86	102.98
371.06	72.56
371.25	105.32
371.45	86.60
371.65	72.56
371.84	128.73
372.04	182.56
372.24	168.52
372.44	166.18
372.63	224.69
372.83	198.95
373.03	138.09
373.22	203.63
373.42	236.39
373.62	271.50
373.81	294.91
374.01	236.39
374.21	250.44
374.40	184.90
374.60	159.16
374.79	194.26
374.99	227.03
375.19	243.42
375.38	313.63
375.58	245.76
375.78	255.12
375.97	180.22
376.17	161.50
376.37	294.91
376.56	278.52
376.76	222.35
376.95	238.73
377.15	245.76
377.35	318.31
377.54	250.44
377.74	241.08
377.93	287.89
378.13	355.76
378.33	346.40
378.52	308.95
378.72	198.95
378.91	280.86
379.11	245.76
379.31	264.48
379.50	325.33
379.70	287.89
379.89	325.33
380.09	306.61
380.28	264.48
380.48	334.70
380.68	325.33
380.87	351.08
381.07	301.93
381.26	266.82
381.46	360.44
381.65	362.78
381.85	315.97
382.04	358.10
382.24	344.06
382.43	313.63
382.63	358.10
382.83	292.57
383.02	383.85
383.22	287.89
383.41	379.17
383.61	397.89
383.80	388.53
384.00	369.80
384.19	358.10
384.39	397.89
384.58	407.25
384.78	372.15
384.97	362.78
385.17	327.68
385.36	372.15
385.56	418.96
385.75	334.70
385.95	418.96
386.14	407.25
386.34	362.78
386.53	440.02
386.72	301.93
386.92	423.64
387.11	433.00
387.31	489.17
387.50	348.74
387.70	322.99
387.89	341.72
388.09	470.45
388.28	444.70
388.48	437.68
388.67	414.27
388.86	421.30
389.06	435.34
389.25	447.04
389.45	449.38
389.64	479.81
389.84	486.83
390.03	482.15
390.22	528.96
390.42	444.70
390.61	505.56
390.81	500.87
391.00	514.92
391.19	533.64
391.39	514.92
391.58	528.96
391.78	486.83
391.97	540.66
392.16	547.69
392.36	477.47
392.55	543.00
392.75	510.24
392.94	526.62
393.13	552.37
393.33	543.00
393.52	550.03
393.71	620.24
393.91	582.79
394.10	500.87
394.29	575.77
394.49	594.50
394.68	589.82
394.88	608.54
395.07	631.94
395.26	615.56
395.46	608.54
395.65	641.31
395.84	711.52
396.04	688.12
396.23	718.54
396.42	624.92
396.62	748.97
396.81	610.88
397.00	641.31
397.19	664.71
397.39	678.76
397.58	645.99
397.77	669.39
397.97	746.63
398.16	674.07
398.35	751.31
398.55	638.97
398.74	655.35
398.93	730.25
399.12	702.16
399.32	706.84
399.51	702.16
399.70	744.29
399.90	746.63
400.09	751.31
400.28	683.44
400.47	737.27
400.67	779.40
400.86	746.63
401.05	760.67
401.24	732.59
401.44	690.46
401.63	788.76
401.82	777.06
402.01	800.46
402.21	809.83
402.40	727.91
402.59	812.17
402.78	894.08
402.97	830.89
403.17	894.08
403.36	854.30
403.55	809.83
403.74	830.89
403.93	966.64
404.13	952.60
404.32	924.51
404.51	938.55
404.70	936.21
404.89	851.96
405.09	1011.11
405.28	959.62
405.47	938.55
405.66	983.02
405.85	898.77
406.05	971.32
406.24	1025.15
406.43	968.98
406.62	1069.62
406.81	1043.88
407.00	936.21
407.20	922.17
407.39	1041.54
407.58	1109.41
407.77	980.68
407.96	1004.09
408.15	1095.37
408.34	973.66
408.54	1104.73
408.73	1095.37
408.92	1121.12
409.11	1165.59
409.30	1071.97
409.49	1046.22
409.68	1095.37
409.87	1032.18
410.07	1207.72
410.26	1198.35
410.45	1221.76
410.64	1121.12
410.83	1179.63
411.02	1364.53
411.21	1275.59
411.40	1224.10
411.59	1217.08
411.78	1282.61
411.98	1357.51
412.17	1280.27
412.36	1362.19
412.55	1221.76
412.74	1376.24
412.93	1441.77
413.12	1324.74
413.31	1315.38
413.50	1427.73
413.69	1380.92
413.88	1502.62
414.07	1437.09
414.26	1500.28
414.45	1523.69
414.64	1481.56
414.83	1565.82
415.02	1521.35
415.22	1434.75
415.41	1453.47
415.60	1540.07
415.79	1521.35
415.98	1579.86
416.17	1528.37
416.36	1565.82
416.55	1558.80
416.74	1614.97
416.93	1659.44
417.12	1736.68
417.31	1596.25
417.50	1717.95
417.69	1760.08
417.88	1774.13
418.07	1708.59
418.26	1682.85
418.45	1769.44
418.64	1640.72
418.83	1792.85
419.02	1750.72
419.21	1753.06
419.39	1717.95
419.58	1804.55
419.77	1832.64
419.96	1820.94
420.15	1774.13
420.34	1877.11
420.53	1874.77
420.72	1905.20
420.91	1895.83
421.10	1928.60
421.29	1844.34
421.48	1823.28
421.67	1994.14
421.86	1884.13
422.05	2062.01
422.24	2024.56
422.43	2022.22
422.61	1987.11
422.80	2125.21
422.99	1975.41
423.18	1900.52
423.37	2019.88
423.56	1989.46
423.75	2015.20
423.94	2031.58
424.13	1724.97
424.32	1856.04
424.50	1994.14
424.69	2101.80
424.88	2050.31
425.07	2062.01
425.26	1963.71
425.45	2033.93
425.64	2059.67
425.83	2047.97
426.01	2080.74
426.20	2080.74
426.39	2026.90
426.58	2146.27
426.77	2064.35
426.96	2024.56
427.15	2160.31
427.33	2108.82
427.52	2052.65
427.71	1996.48
427.90	2193.08
428.09	2136.91
428.28	2101.80
428.46	2223.51
428.65	2195.42
428.84	2244.57
429.03	2197.76
429.22	2188.40
429.40	2253.94
429.59	2253.94
429.78	2162.66
429.97	2155.63
430.16	2122.87
430.34	2296.07
430.53	2408.41
430.72	2291.38
430.91	2176.70
431.10	2349.90
431.28	2263.30
431.47	2359.26
431.66	2513.74
431.85	2370.96
432.03	2466.92
432.22	2492.67
432.41	2387.35
432.60	2530.12
432.79	2340.54
432.97	2525.44
433.16	2450.54
433.35	2513.74
433.54	2581.61
433.72	2523.10
433.91	2490.33
434.10	2539.48
434.28	2469.27
434.47	2455.22
434.66	2623.74
434.85	2471.61
435.03	2579.27
435.22	2572.25
435.41	2757.15
435.59	2637.78
435.78	2719.70
435.97	2661.19
436.16	2832.05
436.34	2649.49
436.53	2745.45
436.72	2686.94
436.90	2722.04
437.09	2689.28
437.28	2623.74
437.46	2698.64
437.65	2794.60
437.84	2897.58
438.02	2876.52
438.21	2801.62
438.40	2871.84
438.58	2874.18
438.77	2944.39
438.96	2860.13
439.14	2864.82
439.33	2918.65
439.52	3026.31
439.70	2932.69
439.89	3012.27
440.08	3035.67
440.26	3066.10
440.45	3098.87
440.63	3124.62
440.82	3117.59
441.01	3117.59
441.19	3199.51
441.38	3213.56
441.57	3169.09
441.75	3157.38
441.94	3227.60
442.12	3286.11
442.31	3400.80
442.50	3353.99
442.68	3138.66
442.87	3323.56
443.05	3330.58
443.24	3227.60
443.43	3330.58
443.61	3403.14
443.80	3569.32
443.98	3316.54
444.17	3119.93
444.35	3428.88
444.54	3440.59
444.73	3407.82
444.91	3445.27
445.10	3377.39
445.28	3379.73
445.47	3302.50
445.65	3524.85
445.84	3456.97
446.02	3515.48
446.21	3531.87
446.39	3197.17
446.58	3534.21
446.77	3468.67
446.95	3358.67
447.14	3379.73
447.32	3445.27
447.51	3417.18
447.69	3370.37
447.88	3501.44
448.06	3520.17
448.25	3426.54
448.43	3588.04
448.62	3503.78
448.80	3529.53
448.99	3606.77
449.17	3562.30
449.36	3489.74
449.54	3658.26
449.73	3688.68
449.91	3679.32
450.10	3651.24
450.28	3667.62
450.46	3735.50
450.65	3875.93
450.83	3756.56
451.02	3632.51
451.20	3878.27
451.39	3761.24
451.57	3693.37
451.76	3744.86
451.94	3779.97
452.13	3810.39
452.31	3782.31
452.49	3740.18
452.68	3822.09
452.86	3672.30
453.05	3953.16
453.23	3873.59
453.42	3960.19
453.60	3899.33
453.78	3845.50
453.97	3798.69
454.15	3843.16
454.34	3892.31
454.52	3946.14
454.70	3988.27
454.89	3990.61
455.07	4124.02
455.26	3974.23
455.44	4049.13
455.62	4002.32
455.81	4079.55
455.99	4007.00
456.17	4109.98
456.36	4117.00
456.54	4152.11
456.73	4112.32
456.91	4290.20
457.09	4341.69
457.28	4320.63
457.46	4196.58
457.64	4278.50
457.83	4245.73
458.01	4271.48
458.19	4407.23
458.38	4269.14
458.56	4402.55
458.74	4278.50
458.93	4290.20
459.11	4407.23
459.29	4456.38
459.48	4404.89
459.66	4533.62
459.84	4573.41
460.03	4589.79
460.21	4531.28
460.39	4643.62
460.57	4470.42
460.76	4599.15
460.94	4610.86
461.12	4521.92
461.31	4760.65
461.49	4533.62
461.67	4559.36
461.85	4711.50
462.04	4648.30
462.22	4711.50
462.40	4847.25
462.59	4805.12
462.77	4877.68
462.95	4821.50
463.13	4741.93
463.32	4835.55
463.50	4802.78
463.68	4863.63
463.86	4828.53
464.05	4765.33
464.23	4748.95
464.41	4809.80
464.59	4861.29
464.78	4947.89
464.96	4805.12
465.14	4917.47
465.32	4961.94
465.50	4938.53
465.69	5151.52
465.87	4877.68
466.05	4940.87
466.23	4896.40
466.41	5074.28
466.60	5212.37
466.78	5008.75
466.96	5004.07
467.14	5015.77
467.32	5195.99
467.51	5235.78
467.69	4863.63
467.87	5125.77
468.05	5174.92
468.23	5020.45
468.41	5088.32
468.60	5238.12
468.78	5263.86
468.96	5200.67
469.14	5282.59
469.32	5167.90
469.50	5158.54
469.69	5310.68
469.87	5322.38
470.05	5303.65
470.23	5338.76
470.41	5310.68
470.59	5329.40
470.77	5413.66
470.95	5359.83
471.14	5404.30
471.32	5439.40
471.50	5614.95
471.68	5521.32
471.86	5600.90
472.04	5483.88
472.22	5839.64
472.40	5603.24
472.58	5664.10
472.77	5706.23
472.95	5760.06
473.13	6010.50
473.31	5825.59
473.49	5797.51
473.67	5834.96
473.85	5891.13
474.03	5898.15
474.21	5907.51
474.39	6045.60
474.57	6094.76
474.75	6043.26
474.93	6195.40
475.12	6019.86
475.30	6225.82
475.48	6113.48
475.66	6368.60
475.84	6363.92
476.02	6377.96
476.20	6307.74
476.38	6265.61
476.56	6600.31
476.74	6619.04
476.92	6494.99
477.10	6473.92
477.28	6796.92
477.46	6696.27
477.64	6743.08
477.82	6794.58
478.00	6829.68
478.18	6925.65
478.36	6822.66
478.54	6885.86
478.72	6862.45
478.90	7122.25
479.08	7033.31
479.26	7173.74
479.44	7131.61
479.62	7229.91
479.80	7410.14
479.98	7311.83
480.16	7566.95
480.34	7417.16
480.52	7585.68
480.70	7620.78
480.88	7391.41
481.06	7585.68
481.24	7623.12
481.41	7903.99
481.59	7920.37
481.77	8018.68
481.95	8133.36
482.13	7892.29
482.31	8072.51
482.49	8219.96
482.67	8152.09
482.85	8222.30
483.03	8533.59
483.21	8461.04
483.39	8650.62
483.57	8599.13
483.74	8713.81
483.92	8842.54
484.10	8667.00
484.28	8889.35
484.46	8840.20
484.64	9018.08
484.82	8990.00
485.00	9151.49
485.18	9158.52
485.35	9589.17
485.53	9305.97
485.71	9462.79
485.89	9621.94
486.07	9624.28
486.25	9671.09
486.43	9593.86
486.61	9816.21
486.78	9916.85
486.96	9975.36
487.14	9893.44
487.32	10169.63
487.50	10033.88
487.68	10377.94
487.85	10340.49
488.03	10401.34
488.21	10443.47
488.39	10478.58
488.57	10747.74
488.75	10581.56
488.92	10913.92
489.10	10909.24
489.28	10824.98
489.46	11112.86
489.64	11281.38
489.81	11089.46
489.99	11435.86
490.17	11178.40
490.35	11328.19
490.53	11330.53
490.70	11609.06
490.88	11721.40
491.06	11756.51
491.24	11583.31
491.41	11871.20
491.59	11861.84
491.77	12175.47
491.95	12028.01
492.13	12339.30
492.30	12339.30
492.48	12252.70
492.66	12435.27
492.84	12219.94
493.01	12608.47
493.19	12704.43
493.37	12458.67
493.54	12690.38
493.72	12737.20
493.90	12697.41
494.08	12758.26
494.25	13137.43
494.43	13254.45
494.61	13186.58
494.79	13338.71
494.96	13099.98
495.14	13193.60
495.32	13521.27
495.49	13465.10
495.67	13540.00
495.85	13675.75
496.02	13874.70
496.20	13900.44
496.38	13848.95
496.55	13858.31
496.73	14398.98
496.91	14160.24
497.09	14012.79
497.26	14298.33
497.44	14375.57
497.62	14438.76
497.79	14586.22
497.97	14516.00
498.14	14544.09
498.32	14677.50
498.50	14993.47
498.67	15023.90
498.85	14820.27
499.03	15075.39
499.20	14853.04
499.38	14867.08
499.56	15091.77
499.73	15353.91
499.91	15283.70
500.08	15386.68
500.26	15445.20
500.44	15374.98
500.61	15393.70
500.79	15417.11
500.97	15896.92
501.14	15899.26
501.32	15971.82
501.49	15456.90
501.67	15726.06
501.84	15693.29
502.02	15967.13
502.20	15758.83
502.37	16156.72
502.55	16077.14
502.72	16231.62
502.90	16121.61
503.07	16128.63
503.25	16350.98
503.43	16390.77
503.60	16262.04
503.78	16877.60
503.95	16463.33
504.13	16320.56
504.30	16528.86
504.48	16573.33
504.65	16444.60
504.83	16919.73
505.01	17195.92
505.18	16641.21
505.36	17343.37
505.53	16737.17
505.71	16971.22
505.88	17144.42
506.06	16933.78
506.23	17373.80
506.41	17399.54
506.58	17345.71
506.76	17427.63
506.93	17326.99
507.11	17383.16
507.28	17483.80
507.46	17383.16
507.63	17654.66
507.81	17764.67
507.98	17638.28
508.16	17769.35
508.33	17741.26
508.50	17781.05
508.68	18010.42
508.85	18118.09
509.03	18085.32
509.20	18139.15
509.38	18312.35
509.55	18317.03
509.73	18324.05
509.90	18492.57
510.08	18497.25
510.25	18085.32
510.42	18314.69
510.60	18815.57
510.77	18630.66
510.95	18871.74
511.12	18661.09
511.30	18637.69
511.47	18806.20
511.64	18747.69
511.82	18939.62
511.99	18951.32
512.17	18963.02
512.34	19080.05
512.51	19105.79
512.69	19248.57
512.86	19180.69
513.04	19517.73
513.21	19520.07
513.38	19524.75
513.56	19253.25
513.73	19487.30
513.90	19658.16
514.08	19545.81
514.25	19344.53
514.43	19613.69
514.60	19894.55
514.77	19637.09
514.95	19896.89
515.12	19943.70
515.29	19864.13
515.47	20201.16
515.64	20051.37
515.81	19910.94
515.99	20285.42
516.16	20311.17
516.33	20304.15
516.51	20177.76
516.68	20236.27
516.85	20327.55
517.03	20283.08
517.20	20334.57
517.37	20624.80
517.54	20603.74
517.72	20730.12
517.89	20430.54
518.06	20613.10
518.24	20360.32
518.41	20140.31
518.58	20648.21
518.75	20599.05
518.93	20814.38
519.10	21060.14
519.27	21001.63
519.45	21041.42
519.62	20835.45
519.79	20982.90
519.96	21261.43
520.14	21626.55
520.31	21090.57
520.48	21411.22
520.65	21123.33
520.83	21315.26
521.00	21575.06
521.17	21411.22
521.34	21546.97
521.52	21612.51
521.69	21610.17
521.86	21940.18
522.03	21521.23
522.20	21680.38
522.38	21626.55
522.55	22024.44
522.72	21528.25
522.89	21685.06
523.07	22424.67
523.24	21738.90
523.41	22354.46
523.58	22197.64
523.75	22312.33
523.92	21914.44
524.10	22202.32
524.27	22043.17
524.44	22251.47
524.61	22834.27
524.78	22511.27
524.96	22555.74
525.13	22614.26
525.30	22644.68
525.47	22567.45
525.64	22644.68
525.81	22429.35
525.98	22923.21
526.16	22663.41
526.33	22899.80
526.50	22927.89
526.67	22766.39
526.84	22953.63
527.01	22267.86
527.18	22888.10
527.36	22768.73
527.53	22902.14
527.70	23098.75
527.87	23133.86
528.04	23147.90
528.21	23098.75
528.38	22913.84
528.55	23391.31
528.72	23199.39
528.89	23431.10
529.07	23274.29
529.24	23129.17
529.41	23381.95
529.58	23503.66
529.75	23412.38
529.92	23374.93
530.09	23295.35
530.26	23449.83
530.43	23742.39
530.60	23747.08
530.77	23749.42
530.94	23798.57
531.11	23601.96
531.28	23704.95
531.46	23651.11
531.63	23791.55
531.80	24009.22
531.97	23859.42
532.14	23908.57
532.31	24081.77
532.48	24137.94
532.65	24034.96
532.82	23618.35
532.99	23978.79
533.16	23967.09
533.33	24194.12
533.50	24203.48
533.67	24435.19
533.84	23995.17
534.01	24421.15
534.18	24311.14
534.35	24332.21
534.52	24374.34
534.69	24683.29
534.86	24472.64
535.03	24283.06
535.20	24470.30
535.37	24950.11
535.54	24919.68
535.71	24266.67
535.88	24594.35
536.05	24711.38
536.22	25048.41
536.38	24760.53
536.55	24760.53
536.72	24947.77
536.89	24493.71
537.06	24886.92
537.23	25006.28
537.40	24610.73
537.57	25191.19
537.74	25118.63
537.91	25628.87
538.08	25287.15
538.25	25036.71
538.42	25010.96
538.59	25324.60
538.75	25050.75
538.92	25289.49
539.09	25544.61
539.26	25479.07
539.43	25458.01
539.60	25872.28
539.77	25240.34
539.94	25249.70
540.11	25530.56
540.28	25617.16
540.44	25584.40
540.61	25275.45
540.78	25380.77
540.95	25645.25
541.12	25579.71
541.29	25827.81
541.46	25759.94
541.62	25759.94
541.79	25486.09
541.96	25654.61
542.13	25493.12
542.30	25598.44
542.47	26038.46
542.63	25876.96
542.80	26129.74
542.97	26001.01
543.14	26150.81
543.31	26321.66
543.48	26405.92
543.64	26230.38
543.81	26354.43
543.98	26221.02
544.15	26576.78
544.32	26490.18
544.48	27182.98
544.65	26319.32
544.82	26249.11
544.99	25797.38
545.16	26459.76
545.32	26157.83
545.49	26771.05
545.66	26892.76
545.83	26625.93
546.00	26778.07
546.16	26717.22
546.33	27150.21
546.50	26398.90
546.67	26890.41
546.83	26424.65
547.00	26745.30
547.17	26852.97
547.34	26946.59
547.50	26923.18
547.67	27180.64
547.84	26909.14
548.00	27077.66
548.17	27344.48
548.34	27227.45
548.51	27470.87
548.67	27615.98
548.84	27222.77
549.01	27199.37
549.18	26934.88
549.34	27262.56
549.51	27218.09
549.68	27241.50
549.84	27332.78
550.01	27391.29
550.18	27365.54
550.34	27271.92
550.51	27363.20
550.68	27562.15
550.84	27133.83
551.01	27344.48
551.18	27370.22
551.34	27412.35
551.51	27330.44
551.68	27496.61
551.84	27543.42
552.01	27756.41
552.18	27847.69
552.34	27646.41
552.51	27700.24
552.68	27520.02
552.84	27817.27
553.01	27971.74
553.18	27747.05
553.34	28046.64
553.51	27850.03
553.67	28027.92
553.84	27960.04
554.01	27922.59
554.17	27751.73
554.34	27875.78
554.51	27967.06
554.67	27859.40
554.84	27800.88
555.00	28077.07
555.17	27690.88
555.33	27999.83
555.50	27854.72
555.67	28170.69
555.83	28350.91
556.00	28418.78
556.16	28353.25
556.33	28105.15
556.50	28402.40
556.66	28252.61
556.83	28034.94
556.99	28652.84
557.16	28371.97
557.32	28521.77
557.49	28369.63
557.65	28353.25
557.82	28264.31
557.98	28332.18
558.15	28261.97
558.32	28458.57
558.48	28386.02
558.65	28470.28
558.81	28409.42
558.98	28400.06
559.14	28856.46
559.31	28290.06
559.47	28409.42
559.64	28439.85
559.80	28545.17
559.97	28542.83
560.13	28622.41
560.30	28737.10
560.46	28746.46
560.63	28266.65
560.79	29076.48
560.96	28634.11
561.12	28804.97
561.29	28624.75
561.45	28498.36
561.61	28814.34
561.78	29252.02
561.94	29221.59
562.11	28975.83
562.27	28879.87
562.44	28795.61
562.60	28898.59
562.77	28671.56
562.93	28549.85
563.10	29202.86
563.26	28854.12
563.42	29598.41
563.59	28694.97
563.75	29263.72
563.92	29324.57
564.08	28636.45
564.24	28875.19
564.41	28891.57
564.57	28903.28
564.74	28591.98
564.90	29146.69
565.07	28912.64
565.23	29509.47
565.39	29123.29
565.56	29024.98
565.72	29415.85
565.88	29186.48
566.05	28790.93
566.21	29062.43
566.38	29596.07
566.54	29647.57
566.70	29427.56
566.87	29340.96
567.03	29577.35
567.19	29965.88
567.36	29336.27
567.52	29074.13
567.68	29535.22
567.85	28786.25
568.01	29230.95
568.17	28882.21
568.34	28989.88
568.50	29736.51
568.66	29202.86
568.83	29560.97
568.99	29586.71
569.15	29076.48
569.32	29249.67
569.48	29160.73
569.64	29228.61
569.81	29067.11
569.97	28847.10
570.13	29699.06
570.30	29053.07
570.46	29483.73
570.62	29465.00
570.78	29153.71
570.95	29120.95
571.11	29305.85
571.27	29127.97
571.43	29537.56
571.60	29638.20
571.76	29343.30
571.92	29385.43
572.09	29352.66
572.25	29472.03
572.41	29244.99
572.57	29537.56
572.74	29453.30
572.90	29237.97
573.06	29687.36
573.22	29558.63
573.38	29493.09
573.55	29209.89
573.71	29385.43
573.87	29493.09
574.03	29125.63
574.20	29799.70
574.36	29319.89
574.52	29378.40
574.68	29834.81
574.84	29898.00
575.01	29521.18
575.17	29638.20
575.33	29263.72
575.49	29745.87
575.65	29589.05
575.82	29567.99
575.98	29446.28
576.14	29860.55
576.30	29434.58
576.46	29893.32
576.62	29818.42
576.79	29701.40
576.95	29720.12
577.11	29790.34
577.27	29654.59
577.43	29773.95
577.59	29858.21
577.75	29708.42
577.92	29401.81
578.08	29717.78
578.24	29612.46
578.40	29488.41
578.56	29542.24
578.72	29701.40
578.88	29495.43
579.04	29888.64
579.21	29862.90
579.37	30010.35
579.53	29797.36
579.69	29497.77
579.85	29404.15
580.01	29312.87
580.17	29659.27
580.33	29305.85
580.49	29626.50
580.65	29886.30
580.82	29795.02
580.98	29577.35
581.14	29727.14
581.30	29544.58
581.46	29788.00
581.62	29603.10
581.78	29273.08
581.94	29844.17
582.10	29696.72
582.26	30103.97
582.42	29996.31
582.58	29766.93
582.74	29631.18
582.90	29820.77
583.06	30033.75
583.22	29668.63
583.38	29582.03
583.54	29818.42
583.70	29933.11
583.86	29841.83
584.02	29598.41
584.18	29947.15
584.34	29769.27
584.50	30075.88
584.66	29834.81
584.82	29830.13
584.98	29865.24
585.14	29696.72
585.30	29928.43
585.46	29930.77
585.62	29806.72
585.78	30087.59
585.94	29944.81
586.10	29479.05
586.26	29900.34
586.42	29940.13
586.58	30033.75
586.74	30010.35
586.90	29729.48
587.06	29879.28
587.22	29893.32
587.38	29570.33
587.54	29872.26
587.70	30356.75
587.86	30235.04
588.02	30022.05
588.18	29799.70
588.34	30017.37
588.49	30089.93
588.65	29687.36
588.81	29745.87
588.97	29708.42
589.13	30305.26
589.29	29530.54
589.45	30174.19
589.61	30389.52
589.77	30246.74
589.93	30115.67
590.08	30012.69
590.24	30260.79
590.40	30480.80
590.56	30424.62
590.72	30380.15
590.88	30162.48
591.04	29839.49
591.20	30202.27
591.35	30541.65
591.51	30370.79
591.67	30274.83
591.83	30508.88
591.99	30188.23
592.15	30223.34
592.31	30225.68
592.46	30132.06
592.62	30043.12
592.78	29673.31
592.94	30319.30
593.10	30497.18
593.26	30426.96
593.41	30448.03
593.57	30242.06
593.73	30373.13
593.89	30536.97
594.05	30190.57
594.20	30284.19
594.36	30265.47
594.52	30139.08
594.68	30029.07
594.84	30096.95
594.99	30417.60
595.15	30132.06
595.31	30403.56
595.47	30349.73
595.62	30630.59
595.78	30249.08
595.94	30239.72
596.10	30541.65
596.25	30143.76
596.41	30120.35
596.57	30284.19
596.73	30368.45
596.88	30101.63
597.04	30600.16
597.20	30560.37
597.36	30068.86
597.51	30824.86
597.67	30249.08
597.83	30293.55
597.99	30590.80
598.14	30258.45
598.30	30356.75
598.46	30328.66
598.61	30625.91
598.77	30356.75
598.93	30553.35
599.09	30639.95
599.24	30869.33
599.40	30583.78
599.56	30469.09
599.71	30494.84
599.87	30738.26
600.03	30478.46
600.18	30443.35
600.34	30359.09
600.50	30333.34
600.65	30300.58
600.81	30504.20
600.97	30551.01
601.12	30204.61
601.28	30939.54
601.44	30707.83
601.59	30342.70
601.75	30361.43
601.91	30405.90
602.06	30487.82
602.22	30600.16
602.37	30473.78
602.53	30527.61
602.69	30373.13
602.84	30328.66
603.00	30623.57
603.16	30433.99
603.31	30466.75
603.47	29961.20
603.62	30340.36
603.78	30403.56
603.94	30160.14
604.09	30183.55
604.25	30211.64
604.40	30274.83
604.56	30071.20
604.71	30499.52
604.87	30443.35
605.03	30216.32
605.18	30450.37
605.34	30724.21
605.49	30281.85
605.65	30188.23
605.80	30101.63
605.96	30553.35
606.12	30298.23
606.27	30705.49
606.43	30139.08
606.58	30536.97
606.74	30555.69
606.89	30202.27
607.05	30679.74
607.20	29907.37
607.36	30298.23
607.51	30859.96
607.67	30218.66
607.82	29825.45
607.98	30321.64
608.13	30164.82
608.29	30225.68
608.44	30433.99
608.60	30120.35
608.75	30572.08
608.91	30478.46
609.06	30333.34
609.22	30270.15
609.37	29923.75
609.53	30225.68
609.68	30150.78
609.84	29940.13
609.99	30267.81
610.15	30286.53
610.30	30572.08
610.46	30155.46
610.61	30307.60
610.76	30309.94
610.92	30249.08
611.07	30445.69
611.23	30015.03
611.38	29984.60
611.54	30068.86
611.69	29802.04
611.84	30005.67
612.00	30008.01
612.15	30141.42
612.31	29776.30
612.46	29659.27
612.62	30258.45
612.77	30036.09
612.92	30132.06
613.08	30258.45
613.23	30019.71
613.39	29614.80
613.54	29479.05
613.69	29563.31
613.85	29923.75
614.00	29949.50
614.15	30408.24
614.31	29890.98
614.46	29888.64
614.62	29324.57
614.77	29708.42
614.92	29933.11
615.08	29687.36
615.23	29720.12
615.38	30017.37
615.54	29586.71
615.69	29727.14
615.84	29357.34
616.00	29811.40
616.15	29518.84
616.30	29771.61
616.46	30052.48
616.61	29755.23
616.76	29708.42
616.92	29813.74
617.07	29893.32
617.22	29631.18
617.37	29645.23
617.53	29556.28
617.68	29394.79
617.83	29261.38
617.99	29362.02
618.14	29633.52
618.29	29582.03
618.45	29465.00
618.60	29546.92
618.75	29516.50
618.90	29378.40
619.06	29680.33
619.21	29315.21
619.36	29383.09
619.51	29347.98
619.67	28936.04
619.82	29097.54
619.97	28938.38
620.12	29240.31
620.28	29254.36
620.43	29092.86
620.58	29331.59
620.73	29319.89
620.89	29298.83
621.04	29212.23
621.19	29266.06
621.34	29371.38
621.49	29064.77
621.65	29432.24
621.80	29132.65
621.95	28769.86
622.10	28914.98
622.25	29153.71
622.41	28980.51
622.56	29137.33
622.71	29275.42
622.86	28865.83
623.01	29067.11
623.16	28833.06
623.32	28842.42
623.47	28994.56
623.62	29088.18
623.77	28823.70
623.92	28725.39
624.07	28844.76
624.23	28854.12
624.38	29085.84
624.53	28814.34
624.68	28947.75
624.83	29050.73
624.98	29116.26
625.13	28807.31
625.29	28704.33
625.44	28559.22
625.59	28830.72
625.74	28369.63
625.89	28849.44
626.04	28533.47
626.19	28751.14
626.34	28662.20
626.49	28620.07
626.65	28416.44
626.80	28290.06
626.95	28376.66
627.10	28769.86
627.25	28718.37
627.40	28236.22
627.55	28519.43
627.70	28467.94
627.85	28650.50
628.00	28346.23
628.15	28053.66
628.30	28016.21
628.45	28472.62
628.60	28283.03
628.76	28252.61
628.91	27880.46
629.06	28304.10
629.21	28545.17
629.36	28379.00
629.51	28037.28
629.66	28297.08
629.81	28074.73
629.96	28037.28
630.11	28280.69
630.26	27976.42
630.41	28149.62
630.56	27889.82
630.71	27655.77
630.86	27915.57
631.01	28535.81
631.16	28430.49
631.31	27644.07
631.46	27922.59
631.61	28453.89
631.76	28044.30
631.91	27819.61
632.06	27861.74
632.21	27821.95
632.36	28088.77
632.51	27590.24
632.66	28107.49
632.81	27592.58
632.96	27948.34
633.10	27737.69
633.25	28222.18
633.40	28261.97
633.55	27873.44
633.70	27845.35
633.85	27491.93
634.00	27051.91
634.15	27824.29
634.30	27604.28
634.45	27758.75
634.60	27740.03
634.75	27400.65
634.90	27723.65
635.05	27639.39
635.19	27917.91
635.34	27763.43
635.49	27517.68
635.64	27843.01
635.79	27695.56
635.94	27571.51
636.09	27360.86
636.24	27456.82
636.39	27243.84
636.53	27718.96
636.68	27187.66
636.83	27339.80
636.98	27419.38
637.13	27534.06
637.28	27660.45
637.43	27569.17
637.57	27571.51
637.72	27278.94
637.87	27311.71
638.02	27260.22
638.17	27318.73
638.32	27264.90
638.46	27276.60
638.61	27049.57
638.76	26677.43
638.91	26955.95
639.06	27337.46
639.20	26897.44
639.35	26991.06
639.50	27140.85
639.65	27271.92
639.80	27536.40
639.94	27007.44
640.09	27068.30
640.24	26813.18
640.39	26878.71
640.54	26960.63
640.68	26625.93
640.83	26876.37
640.98	26780.41
641.13	26497.20
641.27	26874.03
641.42	26803.82
641.57	27021.48
641.72	26906.80
641.86	26588.49
642.01	26654.02
642.16	26565.08
642.31	26340.39
642.45	27133.83
642.60	26560.40
642.75	26462.10
642.90	26387.20
643.04	26700.83
643.19	26244.43
643.34	26700.83
643.48	26682.11
643.63	26909.14
643.78	26274.85
643.93	26977.01
644.07	26333.37
644.22	26567.42
644.37	26632.96
644.51	26513.59
644.66	26466.78
644.81	26410.60
644.95	26672.74
645.10	26375.50
645.25	26574.44
645.39	25951.86
645.54	26396.56
645.69	26022.08
645.83	26497.20
645.98	26223.36
646.13	26391.88
646.27	26405.92
646.42	26286.56
646.57	26436.35
646.71	26263.15
646.86	26153.15
647.00	26008.03
647.15	26143.78
647.30	26061.87
647.44	26225.70
647.59	26017.40
647.74	25673.34
647.88	26471.46
648.03	26298.26
648.17	26450.39
648.32	26532.31
648.47	26380.18
648.61	25984.63
648.76	26225.70
648.90	26235.06
649.05	26019.74
649.20	26038.46
649.34	26075.91
649.49	25785.68
649.63	25860.58
649.78	25635.89
649.92	25322.26
650.07	25975.27
650.21	26033.78
650.36	26209.32
650.51	26092.29
650.65	25891.01
650.80	26073.57
650.94	26096.97
651.09	25832.49
651.23	25645.25
651.38	25748.23
651.52	25710.78
651.67	25565.67
651.81	25549.29
651.96	25656.95
652.10	25544.61
652.25	25432.26
652.39	25500.14
652.54	25820.79
652.68	25701.42
652.83	25977.61
652.97	25685.04
653.12	25640.57
653.26	25486.09
653.41	25523.54
653.55	25453.33
653.70	25179.48
653.84	25383.11
653.99	25481.41
654.13	25563.33
654.27	25275.45
654.42	25752.91
654.56	25301.19
654.71	25465.03
654.85	25439.28
655.00	25528.22
655.14	25560.99
655.29	25411.20
655.43	25188.85
655.57	25429.92
655.72	25294.17
655.86	25312.89
656.01	25193.53
656.15	25254.38
656.30	25125.65
656.44	25013.31
656.58	25027.35
656.73	24830.74
656.87	25078.84
657.01	24999.26
657.16	25106.93
657.30	25245.02
657.45	25198.21
657.59	25008.62
657.73	24999.26
657.88	25069.48
658.02	25043.73
658.16	25102.25
658.31	25216.93
658.45	24751.17
658.60	24816.70
658.74	24842.45
658.88	24599.03
659.03	24779.25
659.17	24418.81
659.31	24643.50
659.46	24629.46
659.60	24741.80
659.74	24826.06
659.89	24821.38
660.03	24807.34
660.17	24372.00
660.32	24547.54
660.46	24505.41
660.60	24161.35
660.74	24301.78
660.89	24198.80
661.03	24212.84
661.17	24229.23
661.32	24470.30
661.46	24479.66
661.60	24542.86
661.74	24341.57
661.89	24451.58
662.03	24074.75
662.17	24306.46
662.31	24474.98
662.46	24009.22
662.60	23983.47
662.74	24184.76
662.88	24004.53
663.03	23903.89
663.17	23641.75
663.31	23733.03
663.45	23620.69
663.60	23887.51
663.74	23857.08
663.88	23971.77
664.02	23840.70
664.17	23660.48
664.31	23655.79
664.45	23623.03
664.59	23594.94
664.73	23489.62
664.88	23557.49
665.02	23435.78
665.16	23206.41
665.30	23503.66
665.44	23054.28
665.59	23159.60
665.73	23300.03
665.87	23281.31
666.01	23606.64
666.15	23349.18
666.29	23484.94
666.44	23234.50
666.58	23239.18
666.72	23208.75
666.86	23131.51
667.00	23215.77
667.14	23253.22
667.28	23173.64
667.43	22785.12
667.57	23388.97
667.71	22569.79
667.85	23014.49
667.99	22939.59
668.13	22733.62
668.27	22387.22
668.41	22995.76
668.56	22520.63
668.70	22771.07
668.84	22689.15
668.98	22576.81
669.12	22675.11
669.26	22775.75
669.40	22663.41
669.54	22492.55
669.68	22822.56
669.82	22483.19
669.96	22317.01
670.10	21902.73
670.25	22487.87
670.39	22284.24
670.53	22291.26
670.67	21928.48
670.81	22319.35
670.95	22298.28
671.09	21858.26
671.23	22141.47
671.37	22181.26
671.51	22118.06
671.65	22031.46
671.79	22174.24
671.93	21893.37
672.07	22157.85
672.21	21476.76
672.35	21764.64
672.49	21633.57
672.63	21596.12
672.77	21680.38
672.91	21600.80
673.05	21563.36
673.19	21350.37
673.33	21673.36
673.47	21104.61
673.61	21525.91
673.75	21458.03
673.89	21553.99
674.03	21546.97
674.17	21282.49
674.31	21202.91
674.45	21151.42
674.59	21282.49
674.73	21287.17
674.87	21231.00
675.01	21153.76
675.15	20898.64
675.29	20739.49
675.43	21252.06
675.56	20943.11
675.70	20978.22
675.84	20809.70
675.98	20264.36
676.12	20826.09
676.26	21104.61
676.40	20872.90
676.54	20800.34
676.68	20421.17
676.82	19962.43
676.96	20400.11
677.10	20383.73
677.23	20308.83
677.37	20123.93
677.51	20034.99
677.65	20226.91
677.79	20065.41
677.93	20053.71
678.07	19793.91
678.21	19686.25
678.34	19885.19
678.48	19587.94
678.62	19604.33
678.76	19791.57
678.90	19222.82
679.04	19475.60
679.18	19527.09
679.31	19480.28
679.45	19199.41
679.59	19351.55
679.73	19222.82
679.87	18974.72
680.00	18956.00
680.14	18778.12
680.28	19150.26
680.42	19232.18
680.56	19030.90
680.70	18827.27
680.83	19150.26
680.97	18731.31
681.11	18824.93
681.25	18810.89
681.39	18508.96
681.52	18534.70
681.66	18635.35
681.80	18314.69
681.94	18340.44
682.07	18185.96
682.21	18183.62
682.35	18143.83
682.49	18221.07
682.62	17802.11
682.76	17980.00
682.90	17947.23
683.04	18148.51
683.17	17905.10
683.31	18157.88
683.45	18108.72
683.59	18097.02
683.72	17525.93
683.86	17696.79
684.00	17518.91
684.13	17238.05
684.27	17425.29
684.41	17380.82
684.55	17432.31
684.68	17022.72
684.82	17268.47
684.96	17198.26
685.09	17172.51
685.23	16903.35
685.37	17385.50
685.50	17078.89
685.64	16903.35
685.78	16943.14
685.91	16786.32
686.05	16980.59
686.19	16893.99
686.32	16816.75
686.46	16402.47
686.60	16538.23
686.73	16390.77
686.87	16482.05
687.01	16074.80
687.14	16425.88
687.28	16358.00
687.42	16030.33
687.55	16112.25
687.69	16255.02
687.82	16240.98
687.96	16030.33
688.10	15859.47
688.23	16020.97
688.37	15929.69
688.50	16009.26
688.64	15997.56
688.78	15789.25
688.91	15634.78
689.05	15723.72
689.18	15510.73
689.32	15262.63
689.46	15342.21
689.59	15499.03
689.73	15349.23
689.86	15300.08
690.00	14871.76
690.13	15180.71
690.27	15187.74
690.41	15059.01
690.54	15459.24
690.68	14668.14
690.81	14951.34
690.95	15028.58
691.08	15257.95
691.22	14874.10
691.35	14808.57
691.49	14864.74
691.62	14824.95
691.76	14750.06
691.89	14579.20
692.03	14406.00
692.16	14197.69
692.30	14171.94
692.43	14537.07
692.57	14075.98
692.70	14246.84
692.84	14120.45
692.97	14005.77
693.11	14094.71
693.24	13738.94
693.38	13942.57
693.51	14097.05
693.65	14043.21
693.78	13905.12
693.92	13916.83
694.05	13722.56
694.19	13743.63
694.32	13692.13
694.45	13607.87
694.59	13172.54
694.72	13284.88
694.86	13233.39
694.99	13188.92
695.13	13418.29
695.26	13013.38
695.39	12884.65
695.53	13266.16
695.66	13085.94
695.80	13095.30
695.93	13156.15
696.07	13081.25
696.20	12987.63
696.33	12840.18
696.47	13006.36
696.60	12823.80
696.73	12767.62
696.87	12730.17
697.00	12489.10
697.14	12353.35
697.27	12400.16
697.40	12425.90
697.54	12067.80
697.67	12025.67
697.80	12255.04
697.94	12049.08
698.07	11992.90
698.21	12084.19
698.34	12091.21
698.47	12067.80
698.61	12226.96
698.74	12147.38
698.87	12156.74
699.01	11824.39
699.14	12058.44
699.27	11555.22
699.40	11669.91
699.54	11962.48
699.67	11744.81
699.80	11592.67
699.94	11520.12
700.07	11389.05
700.20	11421.81
700.34	11197.12
700.47	11110.52
700.60	11419.47
700.73	11410.11
700.87	10995.84
701.00	10977.11
701.13	11044.99
701.26	10930.30
701.40	11187.76
701.53	11129.25
701.66	11169.04
701.79	10855.40
701.93	10932.64
702.06	10602.63
702.19	10663.48
702.32	10768.80
702.46	10621.35
702.59	10677.52
702.72	10469.22
702.85	10611.99
702.99	10363.89
703.12	10511.35
703.25	10352.19
703.38	10249.21
703.51	10244.52
703.65	10415.38
703.78	10235.16
703.91	10190.69
704.04	10047.92
704.17	10113.45
704.31	10193.03
704.44	10043.24
704.57	9879.40
704.70	9710.88
704.83	9701.52
704.96	9790.46
705.10	9645.35
705.23	9591.52
>>>>>End Processed Spectral Data<<<<<
