SpectraSuite Data File
++++++++++++++++++++++++++++++++++++
Date: Fri Oct 18 13:58:12 GMT-05:00 2013
User: bianchi
Dark Spectrum Present: No
Reference Spectrum Present: No
Number of Sampled Component Spectra: 1
Spectrometers: USB2+H05261
Integration Time (usec): 50000 (USB2+H05261)
Spectra Averaged: 1 (USB2+H05261)
Boxcar Smoothing: 0 (USB2+H05261)
Correct for Electrical Dark: No (USB2+H05261)
Strobe/Lamp Enabled: No (USB2+H05261)
Correct for Detector Non-linearity: No (USB2+H05261)
Correct for Stray Light: No (USB2+H05261)
Number of Pixels in Processed Spectrum: 2048
>>>>>Begin Processed Spectral Data<<<<<
365.73	0.00
365.92	0.00
366.12	0.00
366.32	0.00
366.52	0.00
366.72	0.00
366.91	0.00
367.11	0.00
367.31	0.00
367.51	0.00
367.70	0.00
367.90	0.00
368.10	0.00
368.30	0.00
368.49	0.00
368.69	0.00
368.89	0.00
369.09	0.00
369.28	0.00
369.48	0.00
369.68	0.00
369.87	0.00
370.07	0.00
370.27	0.00
370.47	0.00
370.66	84.26
370.86	215.33
371.06	198.95
371.25	91.28
371.45	117.03
371.65	215.33
371.84	154.48
372.04	128.73
372.24	152.13
372.44	166.18
372.63	121.71
372.83	187.24
373.03	182.56
373.22	205.97
373.42	177.88
373.62	168.52
373.81	205.97
374.01	304.27
374.21	285.55
374.40	236.39
374.60	220.01
374.79	252.78
374.99	159.16
375.19	255.12
375.38	224.69
375.58	297.25
375.78	250.44
375.97	250.44
376.17	290.23
376.37	252.78
376.56	280.86
376.76	252.78
376.95	273.84
377.15	308.95
377.35	301.93
377.54	315.97
377.74	262.14
377.93	187.24
378.13	285.55
378.33	241.08
378.52	290.23
378.72	311.29
378.91	318.31
379.11	264.48
379.31	341.72
379.50	290.23
379.70	301.93
379.89	299.59
380.09	353.42
380.28	360.44
380.48	332.36
380.68	355.76
380.87	301.93
381.07	222.35
381.26	365.12
381.46	297.25
381.65	332.36
381.85	367.46
382.04	306.61
382.24	395.55
382.43	355.76
382.63	358.10
382.83	313.63
383.02	325.33
383.22	339.38
383.41	379.17
383.61	308.95
383.80	414.27
384.00	402.57
384.19	468.11
384.39	407.25
384.58	358.10
384.78	388.53
384.97	414.27
385.17	320.65
385.36	344.06
385.56	379.17
385.75	423.64
385.95	437.68
386.14	447.04
386.34	390.87
386.53	362.78
386.72	395.55
386.92	470.45
387.11	390.87
387.31	416.62
387.50	475.13
387.70	416.62
387.89	470.45
388.09	517.26
388.28	418.96
388.48	383.85
388.67	517.26
388.86	603.86
389.06	440.02
389.25	437.68
389.45	486.83
389.64	346.40
389.84	475.13
390.03	521.94
390.22	442.36
390.42	521.94
390.61	472.79
390.81	500.87
391.00	496.19
391.19	596.84
391.39	543.00
391.58	486.83
391.78	498.53
391.97	493.85
392.16	610.88
392.36	559.39
392.55	561.73
392.75	503.22
392.94	517.26
393.13	594.50
393.33	517.26
393.52	617.90
393.71	578.11
393.91	547.69
394.10	606.20
394.29	526.62
394.49	599.18
394.68	627.26
394.88	606.20
395.07	627.26
395.26	587.47
395.46	585.13
395.65	650.67
395.84	622.58
396.04	685.78
396.23	653.01
396.42	662.37
396.62	674.07
396.81	683.44
397.00	648.33
397.19	744.29
397.39	671.73
397.58	725.57
397.77	660.03
397.97	662.37
398.16	676.41
398.35	732.59
398.55	702.16
398.74	657.69
398.93	671.73
399.12	734.93
399.32	657.69
399.51	767.70
399.70	788.76
399.90	753.65
400.09	809.83
400.28	816.85
400.47	894.08
400.67	814.51
400.86	786.42
401.05	835.57
401.24	741.95
401.44	809.83
401.63	837.91
401.82	868.34
402.01	765.36
402.21	826.21
402.40	887.06
402.59	940.90
402.78	926.85
402.97	880.04
403.17	861.32
403.36	805.14
403.55	884.72
403.74	919.83
403.93	973.66
404.13	978.34
404.32	957.28
404.51	908.13
404.70	1015.79
404.89	943.24
405.09	976.00
405.28	987.71
405.47	1027.50
405.66	973.66
405.85	994.73
406.05	999.41
406.24	926.85
406.43	1067.28
406.62	1095.37
406.81	1057.92
407.00	1104.73
407.20	1090.69
407.39	1004.09
407.58	1102.39
407.77	1170.27
407.96	1172.61
408.15	1050.90
408.34	1078.99
408.54	1109.41
408.73	1055.58
408.92	1088.35
409.11	1076.65
409.30	1193.67
409.49	1095.37
409.68	1238.14
409.87	1121.12
410.07	1196.01
410.26	1284.95
410.45	1261.55
410.64	1188.99
410.83	1226.44
411.02	1167.93
411.21	1275.59
411.40	1324.74
411.59	1254.53
411.78	1266.23
411.98	1210.06
412.17	1409.00
412.36	1296.66
412.55	1275.59
412.74	1352.83
412.93	1366.87
413.12	1418.36
413.31	1500.28
413.50	1385.60
413.69	1444.11
413.88	1406.66
414.07	1476.88
414.26	1453.47
414.45	1502.62
414.64	1474.54
414.83	1521.35
415.02	1563.48
415.22	1528.37
415.41	1593.90
415.60	1593.90
415.79	1556.46
415.98	1636.03
416.17	1640.72
416.36	1640.72
416.55	1680.50
416.74	1673.48
416.93	1645.40
417.12	1614.97
417.31	1755.40
417.50	1678.16
417.69	1736.68
417.88	1689.87
418.07	1771.79
418.26	1802.21
418.45	1856.04
418.64	1811.57
418.83	1797.53
419.02	1825.62
419.21	1797.53
419.39	1811.57
419.58	1879.45
419.77	1870.09
419.96	1872.43
420.15	1846.68
420.34	1954.35
420.53	2003.50
420.72	1994.14
420.91	1886.47
421.10	2050.31
421.29	2001.16
421.48	1905.20
421.67	2045.63
421.86	1977.75
422.05	2050.31
422.24	1872.43
422.43	2019.88
422.61	1987.11
422.80	2024.56
422.99	2040.95
423.18	2010.52
423.37	2043.29
423.56	2066.69
423.75	1961.37
423.94	1930.94
424.13	1987.11
424.32	2026.90
424.50	2120.53
424.69	2069.03
424.88	2193.08
425.07	2059.67
425.26	2045.63
425.45	2111.16
425.64	2031.58
425.83	2200.10
426.01	2153.29
426.20	2085.42
426.39	2118.18
426.58	2017.54
426.77	2059.67
426.96	2062.01
427.15	2162.66
427.33	2279.68
427.52	2136.91
427.71	2169.68
427.90	2225.85
428.09	2225.85
428.28	2265.64
428.46	2228.19
428.65	2214.15
428.84	2359.26
429.03	2347.56
429.22	2246.91
429.40	2246.91
429.59	2237.55
429.78	2235.21
429.97	2232.87
430.16	2296.07
430.34	2267.98
430.53	2340.54
430.72	2406.07
430.91	2328.83
431.10	2445.86
431.28	2436.50
431.47	2345.22
431.66	2356.92
431.85	2438.84
432.03	2429.48
432.22	2450.54
432.41	2602.68
432.60	2492.67
432.79	2462.24
432.97	2520.76
433.16	2572.25
433.35	2583.95
433.54	2651.83
433.72	2633.10
433.91	2607.36
434.10	2605.02
434.28	2492.67
434.47	2541.82
434.66	2511.39
434.85	2750.13
435.03	2656.51
435.22	2633.10
435.41	2717.36
435.59	2665.87
435.78	2628.42
435.97	2668.21
436.16	2740.77
436.34	2693.96
436.53	2693.96
436.72	2785.24
436.90	2827.37
437.09	2841.41
437.28	2710.34
437.46	2738.43
437.65	2834.39
437.84	2796.94
438.02	2925.67
438.21	2850.77
438.40	2829.71
438.58	2974.82
438.77	3007.59
438.96	2946.73
439.14	3012.27
439.33	2958.44
439.52	2979.50
439.70	3063.76
439.89	3122.27
440.08	3138.66
440.26	3239.30
440.45	3098.87
440.63	3124.62
440.82	3150.36
441.01	3080.14
441.19	3269.73
441.38	3246.32
441.57	3265.05
441.75	3339.94
441.94	3318.88
442.12	3276.75
442.31	3351.65
442.50	3428.88
442.68	3424.20
442.87	3475.70
443.05	3405.48
443.24	3433.57
443.43	3358.67
443.61	3529.53
443.80	3632.51
443.98	3332.92
444.17	3276.75
444.35	3471.01
444.54	3536.55
444.73	3564.64
444.91	3412.50
445.10	3620.81
445.28	3459.31
445.47	3440.59
445.65	3361.01
445.84	3454.63
446.02	3574.00
446.21	3606.77
446.39	3510.80
446.58	3449.95
446.77	3485.06
446.95	3463.99
447.14	3499.10
447.32	3613.79
447.51	3599.74
447.69	3613.79
447.88	3602.08
448.06	3730.81
448.25	3630.17
448.43	3620.81
448.62	3676.98
448.80	3634.85
448.99	3590.38
449.17	3637.19
449.36	3602.08
449.54	3775.28
449.73	3669.96
449.91	3716.77
450.10	3777.62
450.28	3829.12
450.46	3864.22
450.65	3700.39
450.83	3737.84
451.02	3810.39
451.20	3894.65
451.39	3843.16
451.57	3808.05
451.76	3779.97
451.94	3763.58
452.13	3946.14
452.31	3955.51
452.49	3861.88
452.68	3969.55
452.86	4002.32
453.05	3798.69
453.23	4184.88
453.42	3967.21
453.60	3943.80
453.78	4007.00
453.97	3976.57
454.15	4025.72
454.34	4072.53
454.52	4039.76
454.70	4002.32
454.89	3946.14
455.07	4077.21
455.26	4210.62
455.44	4262.12
455.62	4248.07
455.81	4201.26
455.99	4217.65
456.17	4259.78
456.36	4168.49
456.54	4322.97
456.73	4334.67
456.91	4337.01
457.09	4442.34
457.28	4482.13
457.46	4381.48
457.64	4447.02
457.83	4493.83
458.01	4374.46
458.19	4344.03
458.38	4269.14
458.56	4554.68
458.74	4547.66
458.93	4472.76
459.11	4524.26
459.29	4564.04
459.48	4585.11
459.66	4573.41
459.84	4589.79
460.03	4652.98
460.21	4704.48
460.39	4725.54
460.57	4566.39
460.76	4774.69
460.94	4692.77
461.12	4760.65
461.31	4770.01
461.49	4624.90
461.67	4690.43
461.85	4709.16
462.04	4830.87
462.22	5064.92
462.40	4947.89
462.59	4912.78
462.77	4882.36
462.95	4898.74
463.13	4709.16
463.32	4727.88
463.50	5036.83
463.68	4954.91
463.86	4933.85
464.05	5069.60
464.23	4873.00
464.41	5107.05
464.59	4980.66
464.78	5165.56
464.96	5039.17
465.14	5034.49
465.32	4964.28
465.50	5048.54
465.69	5263.86
465.87	5156.20
466.05	5097.69
466.23	5191.31
466.41	4997.04
466.60	5331.74
466.78	5160.88
466.96	5247.48
467.14	5270.89
467.32	5317.70
467.51	5355.15
467.69	5163.22
467.87	5294.29
468.05	5252.16
468.23	5219.39
468.41	5289.61
468.60	5235.78
468.78	5345.78
468.96	5390.25
469.14	5413.66
469.32	5467.49
469.50	5474.51
469.69	5486.22
469.87	5483.88
470.05	5605.58
470.23	5460.47
470.41	5598.56
470.59	5544.73
470.77	5509.62
470.95	5619.63
471.14	5621.97
471.32	5593.88
471.50	5701.54
471.68	5715.59
471.86	5767.08
472.04	5741.33
472.22	6094.76
472.40	5778.78
472.58	5886.45
472.77	6022.20
472.95	6101.78
473.13	6204.76
473.31	6078.37
473.49	5806.87
473.67	6150.93
473.85	6132.20
474.03	6139.23
474.21	6150.93
474.39	6113.48
474.57	6270.30
474.75	6160.29
474.93	6244.55
475.12	6314.77
475.30	6349.87
475.48	6363.92
475.66	6392.00
475.84	6445.84
476.02	6478.60
476.20	6349.87
476.38	6499.67
476.56	6759.47
476.74	6700.95
476.92	6640.10
477.10	6593.29
477.28	6754.79
477.46	6792.23
477.64	6944.37
477.82	6923.30
478.00	7225.23
478.18	7295.45
478.36	7176.08
478.54	7045.01
478.72	7236.94
478.90	7283.75
479.08	7351.62
479.26	7260.34
479.44	7279.07
479.62	7461.63
479.80	7515.46
479.98	7562.27
480.16	7700.36
480.34	7618.44
480.52	7836.11
480.70	8013.99
480.88	7817.39
481.06	7995.27
481.24	7850.16
481.41	7892.29
481.59	8236.35
481.77	8215.28
481.95	8266.77
482.13	8266.77
482.31	8287.84
482.49	8248.05
482.67	8554.66
482.85	8552.32
483.03	8753.60
483.21	8805.10
483.39	8741.90
483.57	8664.66
483.74	9008.72
483.92	9076.60
484.10	8809.78
484.28	9076.60
484.46	9291.93
484.64	9184.26
484.82	9240.44
485.00	9305.97
485.18	9528.32
485.35	9738.97
485.53	9572.79
485.71	9823.23
485.89	9834.93
486.07	9797.48
486.25	9968.34
486.43	10108.77
486.61	10073.67
486.78	10085.37
486.96	10267.93
487.14	10289.00
487.32	10272.61
487.50	10506.66
487.68	10607.31
487.85	10780.51
488.03	10562.84
488.21	10960.73
488.39	10867.11
488.57	10904.56
488.75	11080.10
488.92	11091.80
489.10	11192.44
489.28	11328.19
489.46	11302.45
489.64	11435.86
489.81	11517.78
489.99	11779.92
490.17	11854.81
490.35	11651.19
490.53	11751.83
490.70	11854.81
490.88	11899.28
491.06	12067.80
491.24	12175.47
491.41	12217.60
491.59	12119.29
491.77	12238.66
491.95	12517.18
492.13	12517.18
492.30	12400.16
492.48	12615.49
492.66	12549.95
492.84	12636.55
493.01	12624.85
493.19	13083.59
493.37	12924.44
493.54	13240.41
493.72	13018.06
493.90	13074.23
494.08	13329.35
494.25	13408.93
494.43	13514.25
494.61	13664.05
494.79	13500.21
494.96	13600.85
495.14	13638.30
495.32	14024.49
495.49	13954.27
495.67	13741.29
495.85	13949.59
496.02	14190.67
496.20	14326.42
496.38	14415.36
496.55	14169.60
496.73	14684.52
496.91	14471.53
497.09	14551.11
497.26	14462.17
497.44	14817.93
497.62	14885.81
497.79	14883.47
497.97	14787.50
498.14	15197.10
498.32	15136.24
498.50	15262.63
498.67	15609.03
498.85	15314.13
499.03	15447.54
499.20	15363.28
499.38	15208.80
499.56	15536.48
499.73	15754.15
499.91	15880.53
500.08	15974.16
500.26	15723.72
500.44	15616.05
500.61	15646.48
500.79	16049.05
500.97	16145.02
501.14	16264.38
501.32	16453.97
501.49	16285.45
501.67	16416.52
501.84	16332.26
502.02	16236.30
502.20	16437.58
502.37	16650.57
502.55	16842.50
502.72	16739.51
502.90	16585.04
503.07	16671.64
503.25	16641.21
503.43	16856.54
503.60	16814.41
503.78	17165.49
503.95	17081.23
504.13	17097.61
504.30	16982.93
504.48	16912.71
504.65	16936.12
504.83	17291.88
505.01	17282.52
505.18	17476.78
505.36	17668.70
505.53	17303.58
505.71	17521.25
505.88	17635.94
506.06	17495.50
506.23	17949.57
506.41	17977.65
506.58	17685.09
506.76	17968.29
506.93	17907.44
507.11	18071.28
507.28	18211.71
507.46	17797.43
507.63	18415.34
507.81	18218.73
507.98	17851.27
508.16	18157.88
508.33	18221.07
508.50	18518.32
508.68	18457.46
508.85	18492.57
509.03	18597.90
509.20	18892.80
509.38	18719.60
509.55	18958.34
509.73	18766.42
509.90	18916.21
510.08	18757.05
510.25	18764.07
510.42	19126.86
510.60	19344.53
510.77	19321.12
510.95	19482.62
511.12	19047.28
511.30	19225.16
511.47	19307.08
511.64	19491.98
511.82	19555.18
511.99	19318.78
512.17	19257.93
512.34	19735.40
512.51	19576.24
512.69	19503.68
512.86	19477.94
513.04	19946.05
513.21	19901.58
513.38	19889.87
513.56	20154.35
513.73	19922.64
513.90	20121.59
514.08	20049.03
514.25	19960.09
514.43	20245.63
514.60	20386.07
514.77	20383.73
514.95	20402.45
515.12	20388.41
515.29	20362.66
515.47	20379.04
515.64	20774.60
515.81	20533.52
515.99	20802.68
516.16	21191.21
516.33	20917.37
516.51	21113.97
516.68	20823.75
516.85	20622.46
517.03	20830.77
517.20	21308.24
517.37	20959.50
517.54	21109.29
517.72	21261.43
517.89	21284.83
518.06	21062.48
518.24	21268.45
518.41	21245.04
518.58	21177.17
518.75	21429.94
518.93	21575.06
519.10	21635.91
519.27	21893.37
519.45	21738.90
519.62	21420.58
519.79	21563.36
519.96	21572.72
520.14	22120.40
520.31	21553.99
520.48	22078.27
520.65	22019.76
520.83	22010.40
521.00	22218.71
521.17	21970.61
521.34	22169.55
521.52	22298.28
521.69	22188.28
521.86	22204.66
522.03	22284.24
522.20	22272.54
522.38	22349.78
522.55	22419.99
522.72	22331.05
522.89	22405.95
523.07	22874.06
523.24	22546.38
523.41	22862.35
523.58	22979.38
523.75	22932.57
523.92	22593.19
524.10	22829.59
524.27	22726.60
524.44	23073.00
524.61	23080.02
524.78	23314.08
524.96	23110.45
525.13	23145.56
525.30	23199.39
525.47	23391.31
525.64	22979.38
525.81	23328.12
525.98	23543.45
526.16	23578.56
526.33	23358.55
526.50	23681.54
526.67	23396.00
526.84	23660.48
527.01	23576.22
527.18	23520.04
527.36	23763.46
527.53	23758.78
527.70	23613.66
527.87	23648.77
528.04	23613.66
528.21	23957.72
528.38	23789.20
528.55	23845.38
528.72	23967.09
528.89	24280.72
529.07	24011.56
529.24	23812.61
529.41	24219.86
529.58	23931.98
529.75	24163.69
529.92	24088.79
530.09	24203.48
530.26	24409.45
530.43	24254.97
530.60	24276.04
530.77	24465.62
530.94	24484.34
531.11	24460.94
531.28	24411.79
531.46	24397.74
531.63	24767.55
531.80	24556.90
531.97	24699.67
532.14	24964.15
532.31	24950.11
532.48	24844.79
532.65	24905.64
532.82	24709.04
532.99	25350.34
533.16	24648.18
533.33	25067.14
533.50	25008.62
533.67	25132.67
533.84	24961.81
534.01	24802.66
534.18	24779.25
534.35	25481.41
534.52	25078.84
534.69	25329.28
534.86	25383.11
535.03	25043.73
535.20	25844.20
535.37	25308.21
535.54	25635.89
535.71	25401.83
535.88	25443.96
536.05	25186.50
536.22	25694.40
536.38	25685.04
536.55	25696.74
536.72	25724.83
536.89	25434.60
537.06	25598.44
537.23	26139.10
537.40	25757.60
537.57	25797.38
537.74	25933.14
537.91	26012.71
538.08	25991.65
538.25	25944.84
538.42	25935.48
538.59	26478.48
538.75	25731.85
538.92	25872.28
539.09	26164.85
539.26	26211.66
539.43	26363.79
539.60	26419.97
539.77	26281.88
539.94	26555.72
540.11	26380.18
540.28	26490.18
540.44	26541.68
540.61	25921.43
540.78	26178.89
540.95	26398.90
541.12	26855.31
541.29	26803.82
541.46	26394.22
541.62	26630.62
541.79	26579.12
541.96	26253.79
542.13	26745.30
542.30	26647.00
542.47	26939.57
542.63	27140.85
542.80	27054.25
542.97	27150.21
543.14	26993.40
543.31	27377.25
543.48	27161.92
543.64	27454.48
543.81	27091.70
543.98	27632.36
544.15	27030.85
544.32	27639.39
544.48	27468.53
544.65	27204.05
544.82	27459.16
544.99	26993.40
545.16	27527.04
545.32	27461.51
545.49	27311.71
545.66	27688.54
545.83	27395.97
546.00	27552.79
546.16	27702.58
546.33	27466.19
546.50	27255.54
546.67	27438.10
546.83	27550.45
547.00	27864.08
547.17	27983.44
547.34	27653.43
547.50	27850.03
547.67	27955.36
547.84	27922.59
548.00	27835.99
548.17	28105.15
548.34	27887.48
548.51	28264.31
548.67	27854.72
548.84	27920.25
549.01	28285.37
549.18	27950.68
549.34	28348.57
549.51	27946.00
549.68	28231.54
549.84	28128.56
550.01	28063.02
550.18	27885.14
550.34	28285.37
550.51	28542.83
550.68	28428.15
550.84	28109.83
551.01	28439.85
551.18	28060.68
551.34	27824.29
551.51	28238.56
551.68	28608.37
551.84	28386.02
552.01	28711.35
552.18	28526.45
552.34	28285.37
552.51	28442.19
552.68	28589.64
552.84	28690.29
553.01	28847.10
553.18	28418.78
553.34	28797.95
553.51	28596.67
553.67	28985.19
553.84	28889.23
554.01	28840.08
554.17	28980.51
554.34	28678.58
554.51	28505.38
554.67	28830.72
554.84	28833.06
555.00	28854.12
555.17	29085.84
555.33	29010.94
555.50	28917.32
555.67	28830.72
555.83	28954.77
556.00	28898.59
556.16	29125.63
556.33	28863.49
556.50	28989.88
556.66	29331.59
556.83	29221.59
556.99	29509.47
557.16	29394.79
557.32	29315.21
557.49	29469.69
557.65	29139.67
557.82	28917.32
557.98	29104.56
558.15	29090.52
558.32	29626.50
558.48	29577.35
558.65	29261.38
558.81	29237.97
558.98	29673.31
559.14	29364.36
559.31	29268.40
559.47	29280.10
559.64	29237.97
559.80	29743.53
559.97	29357.34
560.13	29799.70
560.30	29811.40
560.46	29544.58
560.63	29589.05
560.79	29773.95
560.96	29584.37
561.12	29640.54
561.29	29647.57
561.45	29692.04
561.61	30005.67
561.78	29584.37
561.94	29635.86
562.11	30017.37
562.27	29853.53
562.44	29804.38
562.60	29715.44
562.77	29886.30
562.93	30015.03
563.10	29921.41
563.26	29605.44
563.42	30424.62
563.59	30136.74
563.75	30078.22
563.92	30160.14
564.08	29670.97
564.24	29706.08
564.41	29729.48
564.57	29673.31
564.74	29905.02
564.90	30103.97
565.07	30162.48
565.23	30293.55
565.39	30073.54
565.56	30106.31
565.72	30331.00
565.88	30473.78
566.05	30029.07
566.21	30270.15
566.38	30230.36
566.54	29949.50
566.70	30286.53
566.87	30555.69
567.03	30211.64
567.19	30417.60
567.36	30522.93
567.52	30251.42
567.68	30419.94
567.85	29979.92
568.01	30237.38
568.17	30370.79
568.34	30078.22
568.50	30445.69
568.66	30354.41
568.83	30417.60
568.99	30342.70
569.15	30143.76
569.32	29813.74
569.48	30228.02
569.64	30518.25
569.81	30157.80
569.97	30258.45
570.13	30637.61
570.30	30412.92
570.46	30487.82
570.62	30375.47
570.78	30298.23
570.95	30122.69
571.11	30202.27
571.27	30363.77
571.43	30359.09
571.60	30590.80
571.76	30543.99
571.92	30597.82
572.09	30302.92
572.25	30340.36
572.41	30572.08
572.57	30689.10
572.74	30621.23
572.90	30485.48
573.06	30541.65
573.22	30693.79
573.38	30888.05
573.55	30656.34
573.71	30714.85
573.87	31187.64
574.03	30628.25
574.20	30590.80
574.36	30518.25
574.52	30677.40
574.68	30497.18
574.84	30532.29
575.01	30761.66
575.17	30417.60
575.33	30712.51
575.49	30586.12
575.65	30899.75
575.82	30623.57
575.98	30675.06
576.14	30778.04
576.30	31002.74
576.46	30639.95
576.62	30728.89
576.79	30951.24
576.95	30604.84
577.11	30646.97
577.27	30958.27
577.43	30845.92
577.59	30663.36
577.75	30932.52
577.92	30831.88
578.08	30043.12
578.24	30389.52
578.40	30651.66
578.56	30604.84
578.72	30848.26
578.88	30874.01
579.04	30930.18
579.21	30881.03
579.37	30993.37
579.53	30822.51
579.69	30551.01
579.85	30740.60
580.01	30801.45
580.17	30478.46
580.33	30618.89
580.49	31061.25
580.65	30658.68
580.82	30698.47
580.98	30850.60
581.14	30817.83
581.30	31075.29
581.46	30712.51
581.62	30984.01
581.78	30834.22
581.94	31026.14
582.10	30431.65
582.26	30864.64
582.42	31040.18
582.58	30543.99
582.74	31082.31
582.90	30972.31
583.06	31096.36
583.22	30955.93
583.38	30953.58
583.54	31087.00
583.70	30558.03
583.86	30948.90
584.02	30675.06
584.18	31049.55
584.34	30731.23
584.50	31417.01
584.66	31035.50
584.82	30644.63
584.98	30803.79
585.14	31110.40
585.30	30946.56
585.46	30885.71
585.62	30789.75
585.78	30705.49
585.94	30965.29
586.10	31246.15
586.26	31112.74
586.42	31594.89
586.58	31058.91
586.74	30682.08
586.90	30904.43
587.06	30551.01
587.22	30864.64
587.38	30745.28
587.54	31012.10
587.70	31470.84
587.86	31316.37
588.02	31063.59
588.18	31321.05
588.34	31096.36
588.49	30972.31
588.65	30623.57
588.81	31075.29
588.97	31070.61
589.13	31150.19
589.29	30782.73
589.45	31321.05
589.61	31248.49
589.77	31381.90
589.93	31452.12
590.08	31386.58
590.24	31117.42
590.40	31271.90
590.56	31587.87
590.72	31206.36
590.88	30752.30
591.04	31019.12
591.20	31606.59
591.35	31484.89
591.51	31707.24
591.67	31435.74
591.83	31578.51
591.99	31056.57
592.15	31571.49
592.31	31030.82
592.46	31440.42
592.62	31515.31
592.78	31000.40
592.94	31201.68
593.10	31147.85
593.26	31597.23
593.41	31494.25
593.57	31290.62
593.73	31267.22
593.89	31417.01
594.05	31314.03
594.20	31578.51
594.36	31299.98
594.52	31377.22
594.68	30976.99
594.84	31215.72
594.99	31765.75
595.15	31503.61
595.31	31503.61
595.47	31761.07
595.62	31431.05
595.78	31496.59
595.94	31349.14
596.10	31857.03
596.25	31374.88
596.41	31622.98
596.57	31108.06
596.73	31447.44
596.88	31292.96
597.04	31484.89
597.20	31758.73
597.36	31805.54
597.51	31737.66
597.67	31637.02
597.83	31325.73
597.99	31702.56
598.14	31435.74
598.30	31370.20
598.46	31328.07
598.61	31412.33
598.77	31372.54
598.93	31681.49
599.09	31763.41
599.24	31854.69
599.40	31651.06
599.56	31662.77
599.71	31627.66
599.87	31625.32
600.03	31206.36
600.18	31442.76
600.34	31356.16
600.50	31512.97
600.65	31566.81
600.81	31920.23
600.97	31821.92
601.12	31875.76
601.28	31440.42
601.44	31608.93
601.59	31899.16
601.75	31515.31
601.91	31562.12
602.06	31646.38
602.22	31826.60
602.37	31503.61
602.53	31440.42
602.69	31683.83
602.84	31578.51
603.00	31864.05
603.16	31594.89
603.31	31339.77
603.47	31667.45
603.62	31634.68
603.78	31768.09
603.94	31723.62
604.09	31419.35
604.25	31508.29
604.40	31421.69
604.56	31290.62
604.71	31793.84
604.87	31653.40
605.03	31571.49
605.18	31641.70
605.34	31363.18
605.49	31105.72
605.65	31637.02
605.80	31342.11
605.96	31204.02
606.12	31459.14
606.27	31559.78
606.43	31498.93
606.58	31800.86
606.74	31498.93
606.89	31494.25
607.05	31831.29
607.20	31564.46
607.36	31452.12
607.51	31468.50
607.67	31159.55
607.82	31379.56
607.98	31716.60
608.13	31700.22
608.29	31431.05
608.44	31414.67
608.60	31510.63
608.75	31711.92
608.91	31456.80
609.06	31229.77
609.22	31386.58
609.37	30911.46
609.53	31082.31
609.68	30934.86
609.84	31091.68
609.99	31318.71
610.15	31103.38
610.30	31115.08
610.46	31140.83
610.61	31262.54
610.76	31597.23
610.92	31019.12
611.07	31384.24
611.23	31173.60
611.38	30883.37
611.54	31047.21
611.69	30855.28
611.84	30862.30
612.00	31108.06
612.15	31126.78
612.31	31161.89
612.46	31082.31
612.62	31314.03
612.77	31065.93
612.92	31454.46
613.08	31428.71
613.23	31108.06
613.39	30778.04
613.54	30745.28
613.69	31044.87
613.85	30892.73
614.00	31402.97
614.15	31122.10
614.31	30787.41
614.46	31072.95
614.62	31206.36
614.77	30930.18
614.92	31545.74
615.08	31133.81
615.23	30696.13
615.38	30941.88
615.54	30597.82
615.69	30637.61
615.84	30646.97
616.00	30859.96
616.15	30881.03
616.30	30930.18
616.46	30820.17
616.61	30878.69
616.76	30803.79
616.92	30864.64
617.07	30700.81
617.22	30703.15
617.37	30742.94
617.53	31019.12
617.68	30522.93
617.83	30576.76
617.99	30361.43
618.14	30515.90
618.29	30773.36
618.45	30719.53
618.60	30405.90
618.75	30756.98
618.90	30572.08
619.06	30602.50
619.21	30281.85
619.36	30745.28
619.51	30431.65
619.67	30148.44
619.82	30422.28
619.97	30256.11
620.12	30661.02
620.28	30508.88
620.43	30373.13
620.58	30635.27
620.73	30405.90
620.89	30684.42
621.04	30628.25
621.19	30682.08
621.34	30209.29
621.49	30284.19
621.65	30146.10
621.80	29883.96
621.95	30003.33
622.10	30471.43
622.25	30115.67
622.41	30052.48
622.56	30015.03
622.71	30115.67
622.86	29890.98
623.01	30204.61
623.16	30211.64
623.32	29956.52
623.47	30185.89
623.62	29977.58
623.77	30031.41
623.92	29942.47
624.07	29820.77
624.23	29862.90
624.38	30029.07
624.53	30450.37
624.68	29851.19
624.83	30108.65
624.98	29912.05
625.13	30174.19
625.29	30230.36
625.44	29685.01
625.59	29677.99
625.74	29677.99
625.89	29607.78
626.04	29502.45
626.19	29692.04
626.34	29635.86
626.49	29364.36
626.65	29493.09
626.80	29970.56
626.95	29631.18
627.10	29432.24
627.25	30059.50
627.40	29015.62
627.55	29528.20
627.70	29537.56
627.85	29422.87
628.00	29443.94
628.15	29797.36
628.30	29233.29
628.45	29326.91
628.60	29481.39
628.76	29439.26
628.91	29406.49
629.06	29472.03
629.21	29621.82
629.36	29656.93
629.51	29123.29
629.66	29635.86
629.81	29034.35
629.96	29336.27
630.11	29165.42
630.26	29296.49
630.41	29125.63
630.56	28809.65
630.71	29516.50
630.86	29160.73
631.01	29237.97
631.16	29160.73
631.31	29420.53
631.46	29350.32
631.61	29055.41
631.76	28924.34
631.91	28706.67
632.06	28856.46
632.21	28982.85
632.36	29134.99
632.51	28816.68
632.66	28996.90
632.81	28531.13
632.96	28765.18
633.10	29144.35
633.25	29153.71
633.40	28994.56
633.55	28774.55
633.70	28709.01
633.85	28657.52
634.00	28685.61
634.15	28542.83
634.30	28659.86
634.45	28435.17
634.60	28716.03
634.75	28533.47
634.90	28804.97
635.05	28879.87
635.19	28858.81
635.34	28774.55
635.49	28938.38
635.64	28357.93
635.79	28723.05
635.94	28517.09
636.09	28746.46
636.24	28664.54
636.39	28266.65
636.53	28435.17
636.68	28549.85
636.83	28657.52
636.98	28713.69
637.13	28648.16
637.28	28496.02
637.43	28538.15
637.57	28425.81
637.72	28547.51
637.87	28496.02
638.02	28006.85
638.17	28388.36
638.32	27843.01
638.46	28435.17
638.61	28128.56
638.76	28102.81
638.91	28053.66
639.06	28114.52
639.20	28329.84
639.35	28304.10
639.50	28369.63
639.65	28128.56
639.80	28577.94
639.94	28304.10
640.09	28421.13
640.24	28173.03
640.39	28245.58
640.54	28126.22
640.68	27999.83
640.83	27997.49
640.98	28032.60
641.13	28013.87
641.27	28308.78
641.42	28025.57
641.57	28238.56
641.72	28137.92
641.86	28079.41
642.01	27573.85
642.16	27868.76
642.31	27831.31
642.45	27864.08
642.60	27658.11
642.75	27669.81
642.90	27147.87
643.04	27419.38
643.19	27318.73
643.34	27473.21
643.48	27871.10
643.63	27700.24
643.78	27482.57
643.93	27653.43
644.07	27634.71
644.22	28037.28
644.37	27665.13
644.51	27555.13
644.66	27587.89
644.81	27606.62
644.95	27690.88
645.10	27641.73
645.25	27302.35
645.39	27190.00
645.54	27545.76
645.69	27660.45
645.83	27194.68
645.98	27789.18
646.13	27583.21
646.27	27543.42
646.42	27227.45
646.57	27400.65
646.71	27410.01
646.86	27426.40
647.00	27143.19
647.15	27491.93
647.30	27325.75
647.44	27267.24
647.59	27211.07
647.74	27133.83
647.88	27417.04
648.03	27494.27
648.17	27552.79
648.32	27190.00
648.47	27065.96
648.61	27173.62
648.76	27363.20
648.90	27360.86
649.05	27278.94
649.20	26955.95
649.34	26916.16
649.49	26684.45
649.63	26991.06
649.78	27098.72
649.92	26998.08
650.07	27288.31
650.21	26904.46
650.36	26721.90
650.51	26752.32
650.65	26890.41
650.80	27300.01
650.94	26623.59
651.09	26745.30
651.23	26918.50
651.38	26979.36
651.52	26892.76
651.67	26740.62
651.81	26988.72
651.96	26808.50
652.10	26656.36
652.25	26766.37
652.39	27213.41
652.54	26913.82
652.68	26595.51
652.83	26621.25
652.97	26941.91
653.12	26426.99
653.26	26691.47
653.41	26764.03
653.55	26382.52
653.70	26441.03
653.84	26595.51
653.99	26368.48
654.13	26260.81
654.27	26412.95
654.42	26473.80
654.56	26263.15
654.71	26789.77
654.85	26363.79
655.00	26742.96
655.14	26366.13
655.29	26604.87
655.43	26160.17
655.57	26211.66
655.72	26260.81
655.86	26504.23
656.01	26237.41
656.15	26459.76
656.30	26319.32
656.44	26113.36
656.58	25757.60
656.73	26001.01
656.87	26375.50
657.01	26218.68
657.16	26361.45
657.30	26579.12
657.45	26129.74
657.59	26064.21
657.73	26132.08
657.88	26258.47
658.02	25867.60
658.16	25799.73
658.31	26050.16
658.45	25970.58
658.60	25942.50
658.74	25834.83
658.88	25851.22
659.03	26003.35
659.17	25823.13
659.31	26052.50
659.46	25848.88
659.60	26141.44
659.74	26111.02
659.89	25504.82
660.03	25556.31
660.17	25626.53
660.32	25558.65
660.46	25596.10
660.60	25544.61
660.74	25406.52
660.89	25720.15
661.03	25209.91
661.17	25570.35
661.32	25486.09
661.46	25418.22
661.60	25586.74
661.74	25479.07
661.89	25184.16
662.03	25411.20
662.17	25282.47
662.31	25025.01
662.46	25490.77
662.60	25074.16
662.74	24872.87
662.88	25027.35
663.03	24552.22
663.17	24762.87
663.31	24821.38
663.45	24985.22
663.60	24734.78
663.74	24575.62
663.88	24732.44
664.02	25090.54
664.17	24692.65
664.31	24711.38
664.45	24552.22
664.59	24727.76
664.73	24526.47
664.88	24383.70
665.02	24168.37
665.16	24699.67
665.30	24718.40
665.44	24739.46
665.59	24093.47
665.73	24123.90
665.87	24210.50
666.01	24236.25
666.15	24311.14
666.29	24280.72
666.44	24350.93
666.58	23913.25
666.72	24107.52
666.86	24212.84
667.00	24112.20
667.14	23974.11
667.28	24046.66
667.43	24037.30
667.57	23964.75
667.71	23821.97
667.85	23754.10
667.99	23843.04
668.13	23840.70
668.27	23800.91
668.41	23585.58
668.56	23957.72
668.70	23880.49
668.84	23924.96
668.98	23847.72
669.12	23702.61
669.26	23583.24
669.40	23372.59
669.54	23501.32
669.68	23454.51
669.82	23253.22
669.96	23264.92
670.10	23112.79
670.25	23278.97
670.39	23590.26
670.53	23051.94
670.67	22848.31
670.81	23101.09
670.95	23047.26
671.09	22974.70
671.23	23363.23
671.37	23208.75
671.51	23082.36
671.65	23002.78
671.79	22946.61
671.93	22899.80
672.07	22754.69
672.21	22775.75
672.35	22773.41
672.49	22590.85
672.63	22331.05
672.77	22586.17
672.91	22616.60
673.05	22398.93
673.19	22838.95
673.33	22394.25
673.47	22345.09
673.61	22789.80
673.75	22548.72
673.89	22017.42
674.03	22141.47
674.17	22111.04
674.31	21933.16
674.45	22309.99
674.59	22483.19
674.73	22314.67
674.87	22045.51
675.01	22146.15
675.15	21539.95
675.29	21848.90
675.43	21727.19
675.56	21830.18
675.70	21757.62
675.84	21420.58
675.98	21357.39
676.12	21652.30
676.26	21706.13
676.40	21582.08
676.54	21642.93
676.68	20985.24
676.82	20868.22
676.96	21392.50
677.10	21238.02
677.23	20865.88
677.37	21125.68
677.51	20936.09
677.65	20828.43
677.79	20746.51
677.93	20659.91
678.07	20610.76
678.21	20533.52
678.34	20615.44
678.48	20643.52
678.62	20547.56
678.76	20563.95
678.90	20278.40
679.04	20491.39
679.18	20341.60
679.31	19894.55
679.45	19812.63
679.59	19763.48
679.73	19908.60
679.87	19822.00
680.00	19763.48
680.14	19920.30
680.28	19639.44
680.42	19770.51
680.56	19784.55
680.70	19817.32
680.83	19681.56
680.97	19655.82
681.11	19541.13
681.25	19456.87
681.39	19199.41
681.52	19396.02
681.66	19269.63
681.80	19234.52
681.94	19276.65
682.07	19286.01
682.21	18963.02
682.35	18618.96
682.49	18808.54
682.62	18808.54
682.76	18923.23
682.90	18860.04
683.04	18948.98
683.17	18827.27
683.31	18780.46
683.45	18740.67
683.59	18658.75
683.72	18520.66
683.86	18452.78
684.00	18494.91
684.13	18253.84
684.27	18492.57
684.41	18082.98
684.55	17987.02
684.68	18024.47
684.82	17855.95
684.96	17916.80
685.09	17898.08
685.23	17401.88
685.37	17745.94
685.50	17678.07
685.64	18008.08
685.78	17706.15
685.91	17547.00
686.05	17759.98
686.19	17703.81
686.32	17678.07
686.46	17076.55
686.60	17341.03
686.73	17305.92
686.87	16884.62
687.01	16905.69
687.14	17006.33
687.28	17046.12
687.42	16870.58
687.55	16673.98
687.69	17036.76
687.82	16498.44
687.96	16748.87
688.10	16755.90
688.23	16681.00
688.37	16664.61
688.50	16393.11
688.64	16575.67
688.78	16318.22
688.91	16627.17
689.05	16152.04
689.18	16233.96
689.32	16027.99
689.46	15829.04
689.59	16009.26
689.73	16116.93
689.86	15990.54
690.00	16032.67
690.13	15777.55
690.27	15840.75
690.41	15850.11
690.54	15510.73
690.68	15740.10
690.81	15737.76
690.95	15742.44
691.08	15768.19
691.22	15431.15
691.35	15386.68
691.49	15494.35
691.62	15405.41
691.76	15108.16
691.89	15272.00
692.03	14951.34
692.16	14782.82
692.30	14778.14
692.43	14883.47
692.57	14848.36
692.70	14991.13
692.84	14520.68
692.97	14848.36
693.11	14714.95
693.24	14752.40
693.38	14651.75
693.51	14501.96
693.65	14310.04
693.78	14263.22
693.92	14354.51
694.05	14183.65
694.19	14211.73
694.32	14303.01
694.45	14113.43
694.59	14031.51
694.72	13877.04
694.86	13884.06
694.99	13720.22
695.13	13715.54
695.26	13930.87
695.39	13579.79
695.53	13465.10
695.66	13565.74
695.80	13509.57
695.93	13542.34
696.07	13640.64
696.20	13509.57
696.33	13799.80
696.47	13394.89
696.60	13341.05
696.73	13376.16
696.87	13334.03
697.00	13200.62
697.14	13071.89
697.27	12624.85
697.40	12716.13
697.54	12884.65
697.67	12645.91
697.80	12613.15
697.94	12751.24
698.07	12786.35
698.21	12554.63
698.34	12594.42
698.47	12524.21
698.61	12496.12
698.74	12273.77
698.87	12748.90
699.01	12320.58
699.14	12301.86
699.27	12175.47
699.40	12320.58
699.54	12156.74
699.67	12301.86
699.80	12086.53
699.94	11777.58
700.07	11824.39
700.20	11674.59
700.34	11784.60
700.47	11754.17
700.60	11819.71
700.73	11925.03
700.87	11676.93
701.00	11552.88
701.13	11536.50
701.26	11536.50
701.40	11534.16
701.53	11538.84
701.66	11517.78
701.79	11637.14
701.93	11316.49
702.06	11396.07
702.19	11040.31
702.32	11201.80
702.46	10862.43
702.59	10829.66
702.72	10764.12
702.85	10862.43
702.99	10736.04
703.12	10780.51
703.25	10745.40
703.38	10754.76
703.51	10782.85
703.65	10691.57
703.78	10600.29
703.91	10633.05
704.04	10406.02
704.17	10698.59
704.31	10532.41
704.44	10363.89
704.57	10424.75
704.70	10076.01
704.83	10047.92
704.96	10129.84
705.10	10186.01
705.23	10085.37
>>>>>End Processed Spectral Data<<<<<
