SpectraSuite Data File
++++++++++++++++++++++++++++++++++++
Date: Fri Oct 18 13:57:53 GMT-05:00 2013
User: bianchi
Dark Spectrum Present: No
Reference Spectrum Present: No
Number of Sampled Component Spectra: 1
Spectrometers: USB2+H05261
Integration Time (usec): 50000 (USB2+H05261)
Spectra Averaged: 1 (USB2+H05261)
Boxcar Smoothing: 0 (USB2+H05261)
Correct for Electrical Dark: No (USB2+H05261)
Strobe/Lamp Enabled: No (USB2+H05261)
Correct for Detector Non-linearity: No (USB2+H05261)
Correct for Stray Light: No (USB2+H05261)
Number of Pixels in Processed Spectrum: 2048
>>>>>Begin Processed Spectral Data<<<<<
365.73	0.00
365.92	0.00
366.12	0.00
366.32	0.00
366.52	0.00
366.72	0.00
366.91	0.00
367.11	0.00
367.31	0.00
367.51	0.00
367.70	0.00
367.90	0.00
368.10	0.00
368.30	0.00
368.49	0.00
368.69	0.00
368.89	0.00
369.09	0.00
369.28	0.00
369.48	0.00
369.68	0.00
369.87	0.00
370.07	0.00
370.27	0.00
370.47	11.70
370.66	79.58
370.86	140.43
371.06	212.99
371.25	205.97
371.45	184.90
371.65	205.97
371.84	105.32
372.04	180.22
372.24	126.39
372.44	194.26
372.63	241.08
372.83	234.05
373.03	220.01
373.22	287.89
373.42	184.90
373.62	229.37
373.81	189.58
374.01	196.60
374.21	168.52
374.40	180.22
374.60	198.95
374.79	285.55
374.99	287.89
375.19	212.99
375.38	262.14
375.58	266.82
375.78	241.08
375.97	266.82
376.17	299.59
376.37	227.03
376.56	243.42
376.76	257.46
376.95	332.36
377.15	266.82
377.35	294.91
377.54	334.70
377.74	266.82
377.93	325.33
378.13	248.10
378.33	285.55
378.52	301.93
378.72	271.50
378.91	273.84
379.11	234.05
379.31	292.57
379.50	262.14
379.70	351.08
379.89	358.10
380.09	381.51
380.28	334.70
380.48	255.12
380.68	283.20
380.87	322.99
381.07	337.04
381.26	325.33
381.46	322.99
381.65	330.02
381.85	353.42
382.04	299.59
382.24	332.36
382.43	383.85
382.63	341.72
382.83	400.23
383.02	280.86
383.22	435.34
383.41	411.93
383.61	388.53
383.80	376.83
384.00	360.44
384.19	360.44
384.39	425.98
384.58	360.44
384.78	374.49
384.97	311.29
385.17	440.02
385.36	315.97
385.56	395.55
385.75	395.55
385.95	351.08
386.14	365.12
386.34	435.34
386.53	402.57
386.72	365.12
386.92	433.00
387.11	414.27
387.31	444.70
387.50	458.74
387.70	449.38
387.89	435.34
388.09	423.64
388.28	465.77
388.48	397.89
388.67	458.74
388.86	472.79
389.06	496.19
389.25	526.62
389.45	451.72
389.64	521.94
389.84	479.81
390.03	533.64
390.22	526.62
390.42	381.51
390.61	454.06
390.81	484.49
391.00	561.73
391.19	582.79
391.39	489.17
391.58	524.28
391.78	517.26
391.97	613.22
392.16	596.84
392.36	571.09
392.55	596.84
392.75	559.39
392.94	552.37
393.13	524.28
393.33	524.28
393.52	573.43
393.71	603.86
393.91	571.09
394.10	552.37
394.29	538.32
394.49	594.50
394.68	671.73
394.88	599.18
395.07	594.50
395.26	627.26
395.46	681.10
395.65	641.31
395.84	667.05
396.04	711.52
396.23	650.67
396.42	678.76
396.62	697.48
396.81	678.76
397.00	655.35
397.19	608.54
397.39	685.78
397.58	767.70
397.77	653.01
397.97	655.35
398.16	636.63
398.35	692.80
398.55	655.35
398.74	809.83
398.93	760.67
399.12	692.80
399.32	767.70
399.51	636.63
399.70	763.01
399.90	716.20
400.09	830.89
400.28	870.68
400.47	849.61
400.67	849.61
400.86	760.67
401.05	767.70
401.24	833.23
401.44	748.97
401.63	802.80
401.82	842.59
402.01	802.80
402.21	791.10
402.40	849.61
402.59	835.57
402.78	901.11
402.97	858.98
403.17	887.06
403.36	840.25
403.55	919.83
403.74	985.37
403.93	936.21
404.13	945.58
404.32	1013.45
404.51	936.21
404.70	938.55
404.89	924.51
405.09	983.02
405.28	968.98
405.47	1039.20
405.66	943.24
405.85	915.15
406.05	933.87
406.24	1086.01
406.43	1041.54
406.62	1027.50
406.81	1036.86
407.00	1018.13
407.20	1034.52
407.39	1032.18
407.58	1036.86
407.77	1036.86
407.96	1078.99
408.15	1048.56
408.34	1163.25
408.54	1123.46
408.73	1001.75
408.92	1188.99
409.11	1125.80
409.30	1179.63
409.49	1198.35
409.68	1151.54
409.87	1107.07
410.07	1210.06
410.26	1153.88
410.45	1205.38
410.64	1214.74
410.83	1181.97
411.02	1193.67
411.21	1270.91
411.40	1324.74
411.59	1233.46
411.78	1268.57
411.98	1306.02
412.17	1256.87
412.36	1313.04
412.55	1322.40
412.74	1359.85
412.93	1371.55
413.12	1394.96
413.31	1504.96
413.50	1425.39
413.69	1413.68
413.88	1434.75
414.07	1469.86
414.26	1570.50
414.45	1448.79
414.64	1586.88
414.83	1535.39
415.02	1455.81
415.22	1586.88
415.41	1530.71
415.60	1533.05
415.79	1629.01
415.98	1654.76
416.17	1673.48
416.36	1572.84
416.55	1568.16
416.74	1610.29
416.93	1575.18
417.12	1640.72
417.31	1795.19
417.50	1680.50
417.69	1790.51
417.88	1717.95
418.07	1643.06
418.26	1795.19
418.45	1907.54
418.64	1926.26
418.83	1842.00
419.02	1774.13
419.21	1811.57
419.39	1888.81
419.58	1877.11
419.77	1799.87
419.96	1856.04
420.15	1937.96
420.34	1923.92
420.53	1881.79
420.72	1973.07
420.91	1881.79
421.10	1959.03
421.29	2038.61
421.48	1956.69
421.67	2083.08
421.86	2038.61
422.05	2101.80
422.24	1970.73
422.43	2001.16
422.61	1982.43
422.80	1919.24
422.99	1994.14
423.18	2127.55
423.37	2012.86
423.56	1987.11
423.75	2064.35
423.94	1935.62
424.13	1919.24
424.32	1884.13
424.50	2024.56
424.69	2165.00
424.88	2132.23
425.07	2015.20
425.26	2099.46
425.45	2059.67
425.64	2076.06
425.83	2069.03
426.01	2036.27
426.20	2036.27
426.39	2134.57
426.58	2050.31
426.77	2054.99
426.96	2078.40
427.15	2057.33
427.33	2115.84
427.52	2221.17
427.71	2186.06
427.90	2244.57
428.09	2176.70
428.28	2223.51
428.46	2239.89
428.65	2122.87
428.84	2195.42
429.03	2305.43
429.22	2408.41
429.40	2143.93
429.59	2420.11
429.78	2232.87
429.97	2167.34
430.16	2377.98
430.34	2251.60
430.53	2338.20
430.72	2305.43
430.91	2359.26
431.10	2347.56
431.28	2403.73
431.47	2406.07
431.66	2525.44
431.85	2455.22
432.03	2448.20
432.22	2487.99
432.41	2586.29
432.60	2539.48
432.79	2452.88
432.97	2628.42
433.16	2452.88
433.35	2520.76
433.54	2581.61
433.72	2511.39
433.91	2511.39
434.10	2607.36
434.28	2593.31
434.47	2597.99
434.66	2597.99
434.85	2630.76
435.03	2658.85
435.22	2567.57
435.41	2684.59
435.59	2562.89
435.78	2612.04
435.97	2633.10
436.16	2621.40
436.34	2628.42
436.53	2745.45
436.72	2768.85
436.90	2743.11
437.09	2848.43
437.28	2717.36
437.46	2764.17
437.65	2743.11
437.84	2892.90
438.02	2810.98
438.21	2871.84
438.40	2895.24
438.58	2885.88
438.77	2916.31
438.96	2761.83
439.14	3047.38
439.33	3019.29
439.52	3054.40
439.70	2960.78
439.89	3075.46
440.08	3056.74
440.26	3112.91
440.45	3080.14
440.63	3115.25
440.82	3138.66
441.01	3220.58
441.19	3047.38
441.38	3213.56
441.57	3300.16
441.75	3241.64
441.94	3293.13
442.12	3300.16
442.31	3258.03
442.50	3293.13
442.68	3356.33
442.87	3445.27
443.05	3365.69
443.24	3468.67
443.43	3405.48
443.61	3442.93
443.80	3480.38
443.98	3396.12
444.17	3300.16
444.35	3456.97
444.54	3482.72
444.73	3555.27
444.91	3503.78
445.10	3522.51
445.28	3449.95
445.47	3454.63
445.65	3506.12
445.84	3515.48
446.02	3665.28
446.21	3534.21
446.39	3527.19
446.58	3716.77
446.77	3520.17
446.95	3456.97
447.14	3536.55
447.32	3719.11
447.51	3527.19
447.69	3681.66
447.88	3588.04
448.06	3506.12
448.25	3562.30
448.43	3529.53
448.62	3452.29
448.80	3588.04
448.99	3779.97
449.17	3681.66
449.36	3721.45
449.54	3716.77
449.73	3794.01
449.91	3775.28
450.10	3714.43
450.28	3803.37
450.46	3695.71
450.65	3742.52
450.83	3871.25
451.02	3761.24
451.20	3777.62
451.39	3962.53
451.57	3939.12
451.76	3763.58
451.94	3768.26
452.13	3763.58
452.31	3985.93
452.49	3880.61
452.68	3920.40
452.86	3971.89
453.05	3988.27
453.23	3880.61
453.42	3964.87
453.60	3873.59
453.78	4016.36
453.97	3934.44
454.15	3857.20
454.34	3964.87
454.52	4133.39
454.70	4051.47
454.89	4131.05
455.07	4191.90
455.26	4248.07
455.44	4105.30
455.62	4182.54
455.81	4161.47
455.99	4081.89
456.17	4224.67
456.36	4262.12
456.54	4306.59
456.73	4201.26
456.91	4521.92
457.09	4435.32
457.28	4578.09
457.46	4348.72
457.64	4372.12
457.83	4348.72
458.01	4383.82
458.19	4517.23
458.38	4440.00
458.56	4535.96
458.74	4550.00
458.93	4540.64
459.11	4461.06
459.29	4592.13
459.48	4517.23
459.66	4550.00
459.84	4713.84
460.03	4629.58
460.21	4631.92
460.39	4660.01
460.57	4741.93
460.76	4589.79
460.94	4753.63
461.12	4816.82
461.31	4772.35
461.49	4861.29
461.67	4741.93
461.85	4800.44
462.04	4521.92
462.22	5062.58
462.40	4772.35
462.59	4868.31
462.77	4800.44
462.95	4861.29
463.13	4809.80
463.32	4849.59
463.50	4915.12
463.68	4924.49
463.86	5011.09
464.05	4884.70
464.23	4816.82
464.41	4931.51
464.59	4912.78
464.78	4933.85
464.96	4950.23
465.14	5011.09
465.32	5118.75
465.50	5200.67
465.69	5153.86
465.87	5060.24
466.05	4992.36
466.23	5167.90
466.41	5146.84
466.60	5135.14
466.78	5219.39
466.96	5088.32
467.14	5352.81
467.32	5287.27
467.51	5366.85
467.69	5256.84
467.87	5235.78
468.05	5343.44
468.23	5287.27
468.41	5198.33
468.60	5275.57
468.78	5359.83
468.96	5369.19
469.14	5502.60
469.32	5416.00
469.50	5270.89
469.69	5493.24
469.87	5439.40
470.05	5568.13
470.23	5439.40
470.41	5530.69
470.59	5416.00
470.77	5455.79
470.95	5533.03
471.14	5540.05
471.32	5547.07
471.50	5614.95
471.68	5748.36
471.86	5682.82
472.04	5582.18
472.22	6036.24
472.40	5781.12
472.58	5872.40
472.77	5767.08
472.95	5865.38
473.13	6167.31
473.31	5954.32
473.49	5813.89
473.67	6040.92
473.85	6050.28
474.03	5959.00
474.21	6160.29
474.39	6286.68
474.57	6176.67
474.75	6312.42
474.93	6291.36
475.12	6094.76
475.30	6380.30
475.48	6221.14
475.66	6296.04
475.84	6457.54
476.02	6408.39
476.20	6534.78
476.38	6581.59
476.56	6883.52
476.74	6663.51
476.92	6637.76
477.10	6764.15
477.28	6832.02
477.46	6640.10
477.64	6766.49
477.82	7145.66
478.00	7016.93
478.18	7133.95
478.36	7061.40
478.54	7227.57
478.72	7286.09
478.90	7215.87
479.08	7255.66
479.26	7377.37
479.44	7428.86
479.62	7513.12
479.80	7557.59
479.98	7639.51
480.16	7651.21
480.34	7709.72
480.52	7595.04
480.70	7864.20
480.88	7761.22
481.06	7805.69
481.24	7836.11
481.41	7878.24
481.59	8028.04
481.77	8238.69
481.95	8229.32
482.13	8187.19
482.31	8100.59
482.49	8507.85
482.67	8578.06
482.85	8465.72
483.03	8690.41
483.21	8676.37
483.39	8821.48
483.57	8725.52
483.74	8688.07
483.92	8823.82
484.10	8922.12
484.28	9041.49
484.46	9221.71
484.64	9130.43
484.82	9238.09
485.00	9282.56
485.18	9385.55
485.35	9476.83
485.53	9518.96
485.71	9511.94
485.89	9949.62
486.07	9837.27
486.25	9764.72
486.43	9893.44
486.61	9853.66
486.78	9851.31
486.96	10174.31
487.14	10242.18
487.32	10204.74
487.50	10539.43
487.68	10373.25
487.85	10628.37
488.03	10553.48
488.21	10892.85
488.39	10927.96
488.57	10778.17
488.75	10808.59
488.92	10988.82
489.10	11176.06
489.28	11236.91
489.46	11438.20
489.64	11398.41
489.81	11351.60
489.99	11431.18
490.17	11573.95
490.35	11367.98
490.53	11864.18
490.70	11983.54
490.88	11948.43
491.06	11737.79
491.24	11761.19
491.41	12051.42
491.59	12142.70
491.77	12170.79
491.95	12519.53
492.13	12463.35
492.30	12521.87
492.48	12514.84
492.66	12428.24
492.84	12645.91
493.01	12856.56
493.19	12992.31
493.37	13060.19
493.54	12908.05
493.72	12968.91
493.90	13025.08
494.08	13350.42
494.25	13224.03
494.43	13366.80
494.61	13729.58
494.79	13453.40
494.96	13638.30
495.14	13551.70
495.32	13729.58
495.49	13734.26
495.67	13708.52
495.85	14174.28
496.02	14204.71
496.20	14319.40
496.38	14155.56
496.55	14300.67
496.73	14354.51
496.91	14466.85
497.09	14504.30
497.26	14516.00
497.44	14698.56
497.62	14663.46
497.79	14757.08
497.97	14658.78
498.14	15021.56
498.32	15140.93
498.50	15250.93
498.67	15496.69
498.85	15253.27
499.03	15133.90
499.20	15499.03
499.38	15536.48
499.56	15108.16
499.73	15754.15
499.91	15674.57
500.08	15555.20
500.26	15492.01
500.44	15707.34
500.61	15763.51
500.79	16074.80
500.97	16123.95
501.14	16353.32
501.32	16154.38
501.49	16299.49
501.67	16276.09
501.84	15957.77
502.02	16477.37
502.20	16465.67
502.37	16299.49
502.55	16697.38
502.72	16372.05
502.90	16514.82
503.07	16631.85
503.25	16582.70
503.43	16320.56
503.60	16767.60
503.78	16908.03
503.95	17097.61
504.13	16638.87
504.30	17064.85
504.48	17032.08
504.65	17277.83
504.83	17013.35
505.01	17310.60
505.18	17446.35
505.36	17474.44
505.53	16989.95
505.71	17413.59
505.88	17617.21
506.06	17174.85
506.23	17647.64
506.41	17614.87
506.58	17909.78
506.76	18068.94
506.93	17743.60
507.11	18019.78
507.28	17727.22
507.46	17666.36
507.63	18197.67
507.81	18401.29
507.98	18036.17
508.16	18040.85
508.33	18092.34
508.50	18382.57
508.68	18527.68
508.85	18567.47
509.03	18317.03
509.20	18635.35
509.38	18380.23
509.55	18874.08
509.73	18820.25
509.90	18775.78
510.08	18637.69
510.25	18845.99
510.42	19126.86
510.60	19077.71
510.77	19276.65
510.95	19346.87
511.12	18754.71
511.30	18991.11
511.47	19117.50
511.64	19077.71
511.82	19288.35
511.99	19248.57
512.17	19412.40
512.34	19372.61
512.51	19744.76
512.69	19538.79
512.86	19594.96
513.04	19770.51
513.21	19807.95
513.38	20037.33
513.56	19962.43
513.73	19667.52
513.90	20051.37
514.08	19974.13
514.25	20140.31
514.43	20189.46
514.60	19971.79
514.77	20444.58
514.95	20561.61
515.12	20182.44
515.29	19934.34
515.47	20360.32
515.64	20519.48
515.81	20912.69
515.99	20566.29
516.16	20460.96
516.33	20538.20
516.51	20870.56
516.68	20793.32
516.85	20671.61
517.03	20847.15
517.20	20992.26
517.37	20821.41
517.54	20627.14
517.72	21027.37
517.89	21099.93
518.06	21228.66
518.24	21326.96
518.41	20964.18
518.58	21326.96
518.75	21125.68
518.93	21425.26
519.10	21216.96
519.27	21420.58
519.45	21432.29
519.62	21422.92
519.79	21326.96
519.96	21645.27
520.14	21923.80
520.31	21612.51
520.48	21542.29
520.65	21668.68
520.83	21937.84
521.00	21991.67
521.17	21947.20
521.34	22012.74
521.52	22260.84
521.69	21961.25
521.86	22064.23
522.03	22211.68
522.20	22553.40
522.38	22445.74
522.55	22455.10
522.72	22632.98
522.89	22352.12
523.07	22771.07
523.24	22841.29
523.41	22583.83
523.58	22595.53
523.75	22583.83
523.92	22555.74
524.10	22541.70
524.27	22464.46
524.44	22934.91
524.61	23014.49
524.78	22817.88
524.96	23199.39
525.13	22881.08
525.30	23058.96
525.47	23002.78
525.64	22970.02
525.81	22932.57
525.98	23393.65
526.16	23157.26
526.33	23241.52
526.50	23459.19
526.67	23410.04
526.84	23321.10
527.01	23410.04
527.18	23248.54
527.36	23445.15
527.53	23768.14
527.70	23583.24
527.87	23882.83
528.04	23576.22
528.21	23601.96
528.38	23625.37
528.55	23782.18
528.72	23873.46
528.89	24299.44
529.07	23534.09
529.24	23803.25
529.41	23995.17
529.58	23948.36
529.75	23838.36
529.92	24100.50
530.09	24046.66
530.26	24247.95
530.43	24224.54
530.60	24196.46
530.77	24025.60
530.94	24355.61
531.11	24376.68
531.28	24379.02
531.46	24435.19
531.63	24542.86
531.80	24315.83
531.97	24580.31
532.14	24889.26
532.31	24514.77
532.48	24409.45
532.65	24680.95
532.82	24781.59
532.99	24627.12
533.16	24753.51
533.33	25118.63
533.50	24971.18
533.67	25174.80
533.84	24575.62
534.01	24966.49
534.18	24819.04
534.35	25214.59
534.52	24973.52
534.69	25518.86
534.86	25256.72
535.03	24971.18
535.20	25600.78
535.37	25509.50
535.54	25500.14
535.71	25184.16
535.88	25472.05
536.05	25289.49
536.22	25469.71
536.38	25479.07
536.55	25408.86
536.72	25729.51
536.89	25633.55
537.06	25841.85
537.23	25593.76
537.40	25820.79
537.57	25764.62
537.74	25490.77
537.91	25876.96
538.08	25956.54
538.25	25862.92
538.42	25879.30
538.59	26064.21
538.75	25874.62
538.92	25956.54
539.09	25776.32
539.26	26143.78
539.43	26274.85
539.60	26171.87
539.77	26146.12
539.94	26082.93
540.11	26422.31
540.28	26071.23
540.44	26099.31
540.61	26403.58
540.78	26225.70
540.95	26139.10
541.12	26263.15
541.29	26609.55
541.46	26628.27
541.62	26188.25
541.79	26370.82
541.96	26141.44
542.13	26045.48
542.30	26579.12
542.47	26380.18
542.63	26815.52
542.80	26630.62
542.97	26948.93
543.14	27236.81
543.31	26614.23
543.48	27269.58
543.64	27325.75
543.81	26988.72
543.98	27489.59
544.15	27517.68
544.32	27049.57
544.48	27412.35
544.65	27278.94
544.82	27089.36
544.99	27182.98
545.16	27115.11
545.32	27625.34
545.49	27543.42
545.66	27370.22
545.83	27679.18
546.00	27725.99
546.16	27480.23
546.33	27363.20
546.50	27140.85
546.67	27103.40
546.83	27168.94
547.00	27721.30
547.17	27531.72
547.34	27508.32
547.50	27594.92
547.67	27857.06
547.84	27730.67
548.00	28009.19
548.17	28009.19
548.34	27648.75
548.51	27913.23
548.67	28180.05
548.84	27805.56
549.01	27840.67
549.18	27946.00
549.34	27637.05
549.51	28030.26
549.68	28156.64
549.84	27707.26
550.01	27976.42
550.18	27983.44
550.34	28442.19
550.51	28011.53
550.68	28259.63
550.84	27964.72
551.01	28299.42
551.18	28348.57
551.34	28100.47
551.51	28257.29
551.68	28336.87
551.84	28313.46
552.01	28680.92
552.18	28268.99
552.34	28465.60
552.51	28648.16
552.68	28449.21
552.84	28500.70
553.01	28718.37
553.18	27960.04
553.34	28718.37
553.51	28755.82
553.67	29032.00
553.84	28971.15
554.01	28657.52
554.17	28556.88
554.34	28470.28
554.51	28788.59
554.67	28980.51
554.84	28774.55
555.00	28861.15
555.17	28601.35
555.33	28872.85
555.50	28624.75
555.67	28968.81
555.83	28748.80
556.00	28903.28
556.16	28727.74
556.33	28521.77
556.50	29275.42
556.66	28680.92
556.83	29153.71
556.99	29408.83
557.16	29333.93
557.32	29146.69
557.49	29352.66
557.65	29106.90
557.82	29172.44
557.98	28903.28
558.15	29289.46
558.32	29401.81
558.48	29350.32
558.65	29415.85
558.81	29474.37
558.98	29160.73
559.14	29109.24
559.31	29062.43
559.47	29565.65
559.64	29390.11
559.80	29120.95
559.97	29701.40
560.13	29174.78
560.30	29340.96
560.46	29558.63
560.63	29544.58
560.79	29926.09
560.96	29535.22
561.12	29457.98
561.29	29591.39
561.45	29511.81
561.61	29867.58
561.78	29631.18
561.94	30106.31
562.11	29785.66
562.27	29745.87
562.44	29172.44
562.60	29825.45
562.77	29362.02
562.93	29647.57
563.10	29914.39
563.26	29844.17
563.42	30143.76
563.59	29745.87
563.75	29589.05
563.92	30031.41
564.08	29626.50
564.24	29895.66
564.41	29645.23
564.57	29989.28
564.74	29839.49
564.90	30099.29
565.07	30026.73
565.23	30057.16
565.39	29790.34
565.56	29848.85
565.72	29642.88
565.88	29937.79
566.05	29788.00
566.21	29816.08
566.38	30263.13
566.54	30003.33
566.70	30480.80
566.87	29902.68
567.03	30258.45
567.19	30312.28
567.36	30188.23
567.52	30162.48
567.68	30412.92
567.85	29951.84
568.01	30122.69
568.17	29790.34
568.34	30340.36
568.50	30309.94
568.66	30026.73
568.83	30639.95
568.99	29802.04
569.15	30143.76
569.32	30029.07
569.48	30239.72
569.64	30410.58
569.81	30223.34
569.97	30139.08
570.13	30586.12
570.30	30080.56
570.46	30429.30
570.62	30155.46
570.78	30157.80
570.95	30281.85
571.11	30288.87
571.27	29993.97
571.43	30068.86
571.60	30265.47
571.76	29862.90
571.92	30305.26
572.09	30246.74
572.25	30295.89
572.41	30909.11
572.57	30689.10
572.74	30429.30
572.90	30075.88
573.06	30370.79
573.22	30548.67
573.38	30422.28
573.55	30141.42
573.71	30675.06
573.87	30927.84
574.03	30221.00
574.20	30649.32
574.36	30539.31
574.52	30295.89
574.68	30384.83
574.84	30560.37
575.01	30583.78
575.17	30499.52
575.33	30471.43
575.49	30300.58
575.65	30316.96
575.82	30539.31
575.98	30689.10
576.14	30494.84
576.30	30370.79
576.46	30218.66
576.62	30263.13
576.79	30742.94
576.95	30356.75
577.11	30576.76
577.27	30567.40
577.43	30508.88
577.59	30469.09
577.75	30897.41
577.92	30244.40
578.08	30366.11
578.24	30703.15
578.40	30473.78
578.56	30756.98
578.72	30639.95
578.88	30883.37
579.04	30738.26
579.21	30586.12
579.37	30515.90
579.53	30637.61
579.69	30625.91
579.85	30686.76
580.01	30478.46
580.17	30424.62
580.33	30242.06
580.49	30562.72
580.65	30604.84
580.82	30876.35
580.98	30731.23
581.14	30546.33
581.30	30525.27
581.46	30206.95
581.62	30574.42
581.78	30937.20
581.94	30506.54
582.10	30581.44
582.26	30696.13
582.42	30609.53
582.58	30728.89
582.74	30927.84
582.90	30953.58
583.06	30934.86
583.22	30773.36
583.38	30450.37
583.54	30679.74
583.70	30691.44
583.86	30920.82
584.02	30698.47
584.18	30810.81
584.34	31002.74
584.50	31140.83
584.66	30766.34
584.82	30712.51
584.98	30707.83
585.14	30611.87
585.30	30845.92
585.46	30749.96
585.62	30646.97
585.78	30941.88
585.94	30803.79
586.10	30953.58
586.26	30958.27
586.42	30918.48
586.58	30976.99
586.74	30551.01
586.90	30532.29
587.06	30649.32
587.22	30991.03
587.38	30600.16
587.54	30663.36
587.70	31248.49
587.86	31356.16
588.02	30754.64
588.18	31138.49
588.34	30836.56
588.49	30691.44
588.65	30829.54
588.81	30904.43
588.97	30691.44
589.13	30955.93
589.29	30775.70
589.45	31112.74
589.61	31515.31
589.77	31253.17
589.93	31019.12
590.08	31087.00
590.24	31271.90
590.40	31012.10
590.56	31564.46
590.72	30904.43
590.88	31108.06
591.04	30806.13
591.20	31105.72
591.35	31168.91
591.51	31353.82
591.67	31683.83
591.83	31274.24
591.99	31555.10
592.15	31466.16
592.31	31440.42
592.46	30967.63
592.62	31147.85
592.78	31016.78
592.94	31126.78
593.10	31002.74
593.26	31267.22
593.41	31639.36
593.57	31267.22
593.73	31335.09
593.89	31005.08
594.05	31463.82
594.20	31117.42
594.36	31269.56
594.52	31356.16
594.68	31023.80
594.84	31421.69
594.99	31344.45
595.15	31461.48
595.31	31323.39
595.47	31887.46
595.62	31459.14
595.78	31119.76
595.94	31220.41
596.10	31625.32
596.25	31122.10
596.41	31000.40
596.57	30831.88
596.73	31442.76
596.88	31225.09
597.04	31747.03
597.20	31590.21
597.36	31826.60
597.51	31379.56
597.67	31374.88
597.83	31440.42
597.99	31068.27
598.14	31131.47
598.30	31686.17
598.46	31101.04
598.61	31393.61
598.77	31260.20
598.93	30946.56
599.09	31592.55
599.24	31819.58
599.40	31669.79
599.56	31459.14
599.71	31433.39
599.87	31445.10
600.03	31166.57
600.18	31229.77
600.34	31412.33
600.50	31417.01
600.65	31281.26
600.81	31637.02
600.97	31824.26
601.12	31283.60
601.28	31325.73
601.44	31271.90
601.59	31594.89
601.75	31398.29
601.91	31405.31
602.06	31505.95
602.22	31379.56
602.37	31250.83
602.53	31536.38
602.69	31381.90
602.84	31819.58
603.00	31431.05
603.16	31639.36
603.31	31896.82
603.47	31615.96
603.62	31424.03
603.78	31440.42
603.94	31695.53
604.09	31335.09
604.25	31239.13
604.40	31157.21
604.56	31311.69
604.71	31639.36
604.87	31325.73
605.03	31711.92
605.18	31674.47
605.34	31538.72
605.49	31175.94
605.65	31330.41
605.80	31126.78
605.96	31569.15
606.12	31115.08
606.27	31505.95
606.43	30962.95
606.58	31386.58
606.74	31255.51
606.89	31456.80
607.05	31227.43
607.20	31393.61
607.36	31335.09
607.51	31491.91
607.67	31182.96
607.82	31208.70
607.98	31508.29
608.13	31040.18
608.29	31285.94
608.44	31409.99
608.60	31222.75
608.75	31175.94
608.91	31147.85
609.06	31115.08
609.22	31433.39
609.37	30799.11
609.53	30654.00
609.68	31302.32
609.84	31248.49
609.99	31601.91
610.15	31344.45
610.30	30911.46
610.46	31033.16
610.61	31248.49
610.76	31363.18
610.92	31274.24
611.07	30965.29
611.23	31295.30
611.38	30974.65
611.54	30717.19
611.69	30974.65
611.84	31173.60
612.00	30981.67
612.15	30576.76
612.31	31461.48
612.46	30522.93
612.62	31185.30
612.77	31063.59
612.92	31206.36
613.08	30387.18
613.23	31070.61
613.39	30836.56
613.54	30951.24
613.69	30796.77
613.85	30431.65
614.00	31068.27
614.15	31084.65
614.31	30658.68
614.46	31145.51
614.62	30995.71
614.77	30689.10
614.92	31199.34
615.08	31131.47
615.23	30911.46
615.38	31267.22
615.54	30462.07
615.69	30436.33
615.84	30572.08
616.00	30366.11
616.15	30511.22
616.30	30988.69
616.46	30387.18
616.61	30581.44
616.76	30689.10
616.92	30471.43
617.07	31087.00
617.22	30487.82
617.37	30543.99
617.53	30756.98
617.68	30300.58
617.83	30384.83
617.99	30637.61
618.14	30342.70
618.29	30609.53
618.45	30033.75
618.60	30307.60
618.75	30256.11
618.90	30553.35
619.06	30361.43
619.21	30513.56
619.36	30925.50
619.51	30157.80
619.67	30164.82
619.82	30019.71
619.97	30326.32
620.12	30202.27
620.28	29989.28
620.43	30747.62
620.58	30408.24
620.73	30408.24
620.89	30567.40
621.04	30499.52
621.19	30452.71
621.34	30106.31
621.49	30071.20
621.65	30031.41
621.80	30417.60
621.95	29982.26
622.10	30015.03
622.25	30174.19
622.41	30000.99
622.56	29584.37
622.71	30443.35
622.86	30169.51
623.01	29692.04
623.16	30022.05
623.32	29841.83
623.47	30183.55
623.62	30225.68
623.77	29628.84
623.92	29827.79
624.07	29635.86
624.23	30228.02
624.38	30022.05
624.53	29797.36
624.68	29956.52
624.83	29738.85
624.98	29790.34
625.13	29778.64
625.29	29951.84
625.44	29483.73
625.59	29357.34
625.74	29956.52
625.89	29717.78
626.04	29443.94
626.19	29535.22
626.34	29567.99
626.49	29418.19
626.65	29743.53
626.80	29954.18
626.95	29504.79
627.10	29174.78
627.25	29551.60
627.40	29191.16
627.55	28877.53
627.70	29263.72
627.85	29205.20
628.00	29263.72
628.15	29970.56
628.30	29315.21
628.45	29443.94
628.60	29289.46
628.76	29216.91
628.91	29219.25
629.06	29525.86
629.21	29677.99
629.36	29455.64
629.51	29071.79
629.66	29039.03
629.81	29050.73
629.96	29223.93
630.11	29242.65
630.26	29233.29
630.41	28971.15
630.56	29223.93
630.71	28854.12
630.86	28889.23
631.01	28961.79
631.16	29277.76
631.31	28694.97
631.46	29085.84
631.61	29130.31
631.76	29233.29
631.91	28882.21
632.06	29013.28
632.21	28772.21
632.36	28924.34
632.51	28875.19
632.66	28823.70
632.81	28926.68
632.96	29174.78
633.10	28849.44
633.25	28851.78
633.40	28940.72
633.55	28947.75
633.70	28725.39
633.85	28552.20
634.00	28395.38
634.15	28570.92
634.30	28889.23
634.45	28687.95
634.60	28734.76
634.75	28725.39
634.90	28716.03
635.05	28535.81
635.19	29064.77
635.34	28678.58
635.49	29020.30
635.64	28486.66
635.79	28676.24
635.94	28390.70
636.09	28465.60
636.24	28322.82
636.39	28357.93
636.53	28395.38
636.68	28105.15
636.83	28276.01
636.98	28931.36
637.13	28388.36
637.28	28659.86
637.43	28533.47
637.57	28662.20
637.72	28308.78
637.87	28009.19
638.02	28121.54
638.17	28268.99
638.32	28175.37
638.46	27655.77
638.61	28067.70
638.76	27971.74
638.91	27941.32
639.06	28060.68
639.20	28091.11
639.35	27981.10
639.50	27941.32
639.65	28404.74
639.80	28332.18
639.94	28238.56
640.09	28023.23
640.24	28119.20
640.39	27885.14
640.54	28079.41
640.68	27716.62
640.83	27728.33
640.98	27517.68
641.13	27515.34
641.27	28037.28
641.42	27660.45
641.57	27538.74
641.72	27733.01
641.86	27899.19
642.01	27328.10
642.16	27580.87
642.31	27658.11
642.45	28086.43
642.60	27185.32
642.75	27505.98
642.90	27566.83
643.04	27328.10
643.19	27173.62
643.34	27676.83
643.48	27538.74
643.63	27550.45
643.78	27271.92
643.93	27253.20
644.07	27611.30
644.22	27606.62
644.37	27426.40
644.51	27791.52
644.66	27597.26
644.81	27384.27
644.95	27438.10
645.10	26909.14
645.25	27227.45
645.39	27496.61
645.54	27569.17
645.69	27452.14
645.83	27398.31
645.98	27321.07
646.13	27260.22
646.27	27438.10
646.42	27232.13
646.57	27136.17
646.71	27089.36
646.86	26995.74
647.00	27571.51
647.15	27349.16
647.30	27058.93
647.44	26700.83
647.59	27161.92
647.74	27290.65
647.88	27180.64
648.03	27136.17
648.17	27204.05
648.32	27349.16
648.47	27456.82
648.61	27269.58
648.76	26937.23
648.90	26993.40
649.05	27077.66
649.20	26925.52
649.34	26855.31
649.49	26911.48
649.63	26630.62
649.78	27199.37
649.92	26878.71
650.07	27131.49
650.21	26852.97
650.36	27047.23
650.51	26544.02
650.65	26665.72
650.80	26897.44
650.94	27068.30
651.09	26684.45
651.23	26387.20
651.38	27080.00
651.52	26504.23
651.67	26441.03
651.81	26700.83
651.96	26515.93
652.10	26867.01
652.25	26815.52
652.39	26675.09
652.54	26668.06
652.68	26565.08
652.83	26546.36
652.97	26761.69
653.12	26682.11
653.26	26513.59
653.41	26637.64
653.55	26361.45
653.70	26190.59
653.84	26064.21
653.99	26127.40
654.13	26478.48
654.27	26202.30
654.42	26434.01
654.56	26532.31
654.71	26597.85
654.85	26298.26
655.00	26469.12
655.14	26192.94
655.29	26565.08
655.43	26511.25
655.57	26263.15
655.72	26345.07
655.86	26209.32
656.01	26031.44
656.15	26216.34
656.30	26003.35
656.44	26038.46
656.58	26169.53
656.73	25818.45
656.87	26363.79
657.01	25989.31
657.16	26284.22
657.30	26202.30
657.45	26218.68
657.59	25891.01
657.73	25820.79
657.88	26019.74
658.02	25778.66
658.16	25804.41
658.31	25710.78
658.45	25888.67
658.60	25563.33
658.74	25504.82
658.88	25745.89
659.03	25544.61
659.17	25921.43
659.31	25795.04
659.46	25539.93
659.60	25916.75
659.74	25708.44
659.89	25518.86
660.03	25635.89
660.17	25390.13
660.32	25064.80
660.46	25326.94
660.60	25270.76
660.74	25394.81
660.89	25010.96
661.03	25230.98
661.17	25125.65
661.32	25097.56
661.46	25275.45
661.60	24973.52
661.74	25254.38
661.89	25273.10
662.03	25329.28
662.17	25233.32
662.31	24842.45
662.46	25027.35
662.60	25060.12
662.74	24999.26
662.88	24753.51
663.03	24470.30
663.17	24959.47
663.31	24411.79
663.45	24489.03
663.60	24893.94
663.74	24755.85
663.88	24617.75
664.02	24503.07
664.17	24755.85
664.31	24753.51
664.45	24697.33
664.59	24629.46
664.73	24805.00
664.88	24538.18
665.02	24304.12
665.16	24524.13
665.30	24168.37
665.44	24163.69
665.59	24074.75
665.73	24116.88
665.87	23988.15
666.01	24215.18
666.15	24369.66
666.29	23953.04
666.44	24315.83
666.58	24376.68
666.72	24020.92
666.86	24039.64
667.00	24058.37
667.14	23777.50
667.28	23733.03
667.43	23997.51
667.57	23833.68
667.71	23740.05
667.85	24065.39
667.99	23941.34
668.13	23934.32
668.27	23590.26
668.41	23623.03
668.56	23414.72
668.70	23590.26
668.84	23630.05
668.98	23255.56
669.12	23522.38
669.26	23426.42
669.40	23608.98
669.54	23730.69
669.68	23283.65
669.82	23051.94
669.96	23147.90
670.10	23255.56
670.25	23197.05
670.39	23178.33
670.53	23239.18
670.67	22998.10
670.81	23028.53
670.95	23246.20
671.09	22808.52
671.23	23073.00
671.37	23194.71
671.51	23103.43
671.65	23274.29
671.79	22717.24
671.93	22937.25
672.07	22923.21
672.21	22415.31
672.35	22434.03
672.49	22366.16
672.63	22368.50
672.77	22352.12
672.91	22244.45
673.05	22293.60
673.19	22190.62
673.33	22424.67
673.47	22415.31
673.61	22298.28
673.75	22274.88
673.89	22237.43
674.03	22251.47
674.17	22307.65
674.31	22125.08
674.45	22162.53
674.59	21846.56
674.73	21989.33
674.87	21516.54
675.01	21982.31
675.15	21832.52
675.29	21439.31
675.43	21678.04
675.56	21624.21
675.70	21982.31
675.84	21680.38
675.98	21144.40
676.12	21759.96
676.26	21413.56
676.40	21425.26
676.54	21631.23
676.68	21233.34
676.82	20947.79
676.96	21467.39
677.10	21055.46
677.23	20723.10
677.37	20636.50
677.51	20807.36
677.65	20805.02
677.79	20489.05
677.93	20507.77
678.07	20868.22
678.21	20402.45
678.34	20526.50
678.48	20636.50
678.62	20458.62
678.76	20259.68
678.90	20404.79
679.04	20292.44
679.18	20009.24
679.31	19859.45
679.45	19976.47
679.59	19995.20
679.73	19564.54
679.87	19454.53
680.00	19601.99
680.14	19864.13
680.28	19494.32
680.42	19557.52
680.56	19475.60
680.70	19613.69
680.83	19777.53
680.97	19522.41
681.11	19396.02
681.25	19377.30
681.39	19276.65
681.52	19377.30
681.66	19232.18
681.80	19288.35
681.94	19159.63
682.07	19040.26
682.21	18874.08
682.35	18916.21
682.49	18951.32
682.62	18651.73
682.76	18747.69
682.90	18689.18
683.04	18789.82
683.17	18539.38
683.31	18747.69
683.45	18789.82
683.59	18314.69
683.72	18530.02
683.86	18195.32
684.00	18530.02
684.13	18494.91
684.27	18052.55
684.41	18031.49
684.55	17893.40
684.68	17998.72
684.82	17694.45
684.96	17762.33
685.09	17525.93
685.23	17547.00
685.37	17673.39
685.50	17827.86
685.64	17790.41
685.78	17521.25
685.91	17589.13
686.05	17869.99
686.19	17219.32
686.32	17757.64
686.46	17205.28
686.60	17177.19
686.73	17156.13
686.87	17174.85
687.01	16905.69
687.14	16994.63
687.28	16968.88
687.42	16893.99
687.55	16671.64
687.69	16882.28
687.82	16683.34
687.96	16730.15
688.10	16573.33
688.23	16788.66
688.37	16608.44
688.50	16402.47
688.64	16350.98
688.78	16570.99
688.91	16077.14
689.05	16374.39
689.18	16189.49
689.32	15953.09
689.46	15917.98
689.59	16301.83
689.73	16067.78
689.86	15639.46
690.00	15957.77
690.13	15786.91
690.27	15522.43
690.41	15716.70
690.54	15602.01
690.68	15709.68
690.81	15672.23
690.95	15810.32
691.08	15669.89
691.22	15735.42
691.35	15129.22
691.49	15602.01
691.62	15166.67
691.76	15335.19
691.89	15012.20
692.03	14848.36
692.16	14663.46
692.30	14785.16
692.43	14853.04
692.57	14581.54
692.70	14721.97
692.84	14609.62
692.97	14721.97
693.11	14658.78
693.24	14523.02
693.38	14527.71
693.51	14487.92
693.65	14382.59
693.78	14092.37
693.92	14249.18
694.05	14209.39
694.19	14218.75
694.32	14305.35
694.45	14279.61
694.59	14050.24
694.72	13752.99
694.86	13767.03
694.99	13638.30
695.13	13696.82
695.26	13446.38
695.39	13682.77
695.53	13778.73
695.66	13675.75
695.80	13694.47
695.93	13687.45
696.07	13422.97
696.20	13263.82
696.33	13504.89
696.47	13532.98
696.60	13224.03
696.73	13219.35
696.87	13343.39
697.00	13139.77
697.14	13116.36
697.27	12720.81
697.40	12662.30
697.54	12828.48
697.67	12760.60
697.80	12624.85
697.94	12620.17
698.07	12496.12
698.21	12507.82
698.34	12535.91
698.47	12461.01
698.61	12283.13
698.74	12704.43
698.87	12526.55
699.01	12266.75
699.14	12271.43
699.27	12091.21
699.40	11946.09
699.54	11910.99
699.67	11995.25
699.80	11859.49
699.94	11829.07
700.07	11744.81
700.20	11646.51
700.34	11665.23
700.47	11707.36
700.60	11585.65
700.73	11573.95
700.87	11440.54
701.00	11538.84
701.13	11440.54
701.26	11297.77
701.40	11566.93
701.53	11463.94
701.66	11515.44
701.79	11566.93
701.93	11283.72
702.06	11215.85
702.19	11169.04
702.32	10939.66
702.46	10897.53
702.59	11061.37
702.72	10820.30
702.85	10942.00
702.99	10902.22
703.12	11007.54
703.25	10815.62
703.38	10750.08
703.51	10729.02
703.65	10651.78
703.78	10399.00
703.91	10452.83
704.04	10726.68
704.17	10689.23
704.31	10366.23
704.44	10270.27
704.57	10377.94
704.70	10239.84
704.83	10242.18
704.96	10094.73
705.10	9834.93
705.23	10029.20
>>>>>End Processed Spectral Data<<<<<
