SpectraSuite Data File
++++++++++++++++++++++++++++++++++++
Date: Fri Oct 18 13:58:13 GMT-05:00 2013
User: bianchi
Dark Spectrum Present: No
Reference Spectrum Present: No
Number of Sampled Component Spectra: 1
Spectrometers: USB2+H05261
Integration Time (usec): 50000 (USB2+H05261)
Spectra Averaged: 1 (USB2+H05261)
Boxcar Smoothing: 0 (USB2+H05261)
Correct for Electrical Dark: No (USB2+H05261)
Strobe/Lamp Enabled: No (USB2+H05261)
Correct for Detector Non-linearity: No (USB2+H05261)
Correct for Stray Light: No (USB2+H05261)
Number of Pixels in Processed Spectrum: 2048
>>>>>Begin Processed Spectral Data<<<<<
365.73	32.77
365.92	32.77
366.12	32.77
366.32	0.00
366.52	0.00
366.72	0.00
366.91	0.00
367.11	0.00
367.31	0.00
367.51	0.00
367.70	0.00
367.90	0.00
368.10	0.00
368.30	0.00
368.49	0.00
368.69	0.00
368.89	0.00
369.09	0.00
369.28	0.00
369.48	0.00
369.68	0.00
369.87	0.00
370.07	0.00
370.27	0.00
370.47	0.00
370.66	51.49
370.86	168.52
371.06	98.30
371.25	117.03
371.45	203.63
371.65	163.84
371.84	163.84
372.04	156.82
372.24	102.98
372.44	152.13
372.63	163.84
372.83	191.92
373.03	187.24
373.22	182.56
373.42	189.58
373.62	276.18
373.81	283.20
374.01	255.12
374.21	257.46
374.40	217.67
374.60	320.65
374.79	170.86
374.99	231.71
375.19	201.29
375.38	238.73
375.58	229.37
375.78	252.78
375.97	273.84
376.17	304.27
376.37	259.80
376.56	269.16
376.76	369.80
376.95	311.29
377.15	292.57
377.35	308.95
377.54	280.86
377.74	255.12
377.93	271.50
378.13	285.55
378.33	264.48
378.52	322.99
378.72	341.72
378.91	248.10
379.11	280.86
379.31	313.63
379.50	313.63
379.70	388.53
379.89	299.59
380.09	372.15
380.28	367.46
380.48	280.86
380.68	332.36
380.87	308.95
381.07	362.78
381.26	269.16
381.46	299.59
381.65	290.23
381.85	341.72
382.04	348.74
382.24	306.61
382.43	320.65
382.63	311.29
382.83	294.91
383.02	369.80
383.22	400.23
383.41	362.78
383.61	353.42
383.80	430.66
384.00	496.19
384.19	348.74
384.39	395.55
384.58	411.93
384.78	447.04
384.97	444.70
385.17	266.82
385.36	360.44
385.56	393.21
385.75	353.42
385.95	491.51
386.14	454.06
386.34	442.36
386.53	444.70
386.72	390.87
386.92	442.36
387.11	437.68
387.31	397.89
387.50	440.02
387.70	458.74
387.89	468.11
388.09	379.17
388.28	503.22
388.48	484.49
388.67	456.40
388.86	493.85
389.06	442.36
389.25	440.02
389.45	482.15
389.64	421.30
389.84	461.09
390.03	503.22
390.22	451.72
390.42	489.17
390.61	475.13
390.81	543.00
391.00	465.77
391.19	568.75
391.39	400.23
391.58	512.58
391.78	447.04
391.97	566.41
392.16	512.58
392.36	622.58
392.55	599.18
392.75	561.73
392.94	554.71
393.13	596.84
393.33	533.64
393.52	580.45
393.71	559.39
393.91	585.13
394.10	543.00
394.29	601.52
394.49	620.24
394.68	620.24
394.88	664.71
395.07	622.58
395.26	669.39
395.46	730.25
395.65	634.29
395.84	629.60
396.04	627.26
396.23	585.13
396.42	702.16
396.62	601.52
396.81	683.44
397.00	622.58
397.19	751.31
397.39	711.52
397.58	774.72
397.77	702.16
397.97	788.76
398.16	751.31
398.35	683.44
398.55	786.42
398.74	795.78
398.93	674.07
399.12	744.29
399.32	685.78
399.51	802.80
399.70	856.64
399.90	744.29
400.09	784.08
400.28	746.63
400.47	823.87
400.67	847.27
400.86	901.11
401.05	833.23
401.24	793.44
401.44	786.42
401.63	887.06
401.82	866.00
402.01	922.17
402.21	873.02
402.40	858.98
402.59	905.79
402.78	830.89
402.97	805.14
403.17	816.85
403.36	812.17
403.55	851.96
403.74	940.90
403.93	985.37
404.13	952.60
404.32	866.00
404.51	964.30
404.70	1008.77
404.89	926.85
405.09	936.21
405.28	952.60
405.47	1081.33
405.66	1006.43
405.85	1146.86
406.05	980.68
406.24	1097.71
406.43	997.07
406.62	1001.75
406.81	1123.46
407.00	1013.45
407.20	980.68
407.39	976.00
407.58	1074.31
407.77	1156.22
407.96	1093.03
408.15	1137.50
408.34	1029.84
408.54	1160.91
408.73	1062.60
408.92	1071.97
409.11	1144.52
409.30	1123.46
409.49	1198.35
409.68	1125.80
409.87	1184.31
410.07	1224.10
410.26	1221.76
410.45	1205.38
410.64	1317.72
410.83	1306.02
411.02	1273.25
411.21	1228.78
411.40	1203.04
411.59	1313.04
411.78	1303.68
411.98	1341.13
412.17	1306.02
412.36	1317.72
412.55	1329.42
412.74	1348.15
412.93	1448.79
413.12	1399.64
413.31	1437.09
413.50	1420.71
413.69	1404.32
413.88	1462.83
414.07	1441.77
414.26	1462.83
414.45	1458.15
414.64	1437.09
414.83	1549.43
415.02	1467.52
415.22	1551.78
415.41	1549.43
415.60	1577.52
415.79	1565.82
415.98	1549.43
416.17	1575.18
416.36	1657.10
416.55	1586.88
416.74	1666.46
416.93	1598.59
417.12	1603.27
417.31	1748.38
417.50	1680.50
417.69	1764.76
417.88	1689.87
418.07	1699.23
418.26	1778.81
418.45	1933.28
418.64	1832.64
418.83	1940.30
419.02	1820.94
419.21	1858.39
419.39	1921.58
419.58	1909.88
419.77	1909.88
419.96	1867.75
420.15	1898.17
420.34	1966.05
420.53	1881.79
420.72	1930.94
420.91	2003.50
421.10	1900.52
421.29	2012.86
421.48	1816.26
421.67	1975.41
421.86	1998.82
422.05	1867.75
422.24	1944.99
422.43	1989.46
422.61	2015.20
422.80	2127.55
422.99	2059.67
423.18	2040.95
423.37	2087.76
423.56	2083.08
423.75	2129.89
423.94	2136.91
424.13	1844.34
424.32	2064.35
424.50	2012.86
424.69	2148.61
424.88	2150.95
425.07	2059.67
425.26	2083.08
425.45	2111.16
425.64	2122.87
425.83	2066.69
426.01	2078.40
426.20	2050.31
426.39	2062.01
426.58	2141.59
426.77	2104.14
426.96	2167.34
427.15	2106.48
427.33	2176.70
427.52	2101.80
427.71	2193.08
427.90	2321.81
428.09	2195.42
428.28	2134.57
428.46	2239.89
428.65	2272.66
428.84	2223.51
429.03	2331.17
429.22	2167.34
429.40	2406.07
429.59	2373.30
429.78	2279.68
429.97	2275.00
430.16	2232.87
430.34	2300.75
430.53	2445.86
430.72	2471.61
430.91	2424.80
431.10	2420.11
431.28	2457.56
431.47	2459.90
431.66	2509.05
431.85	2483.31
432.03	2401.39
432.22	2483.31
432.41	2469.27
432.60	2647.15
432.79	2553.52
432.97	2548.84
433.16	2495.01
433.35	2457.56
433.54	2546.50
433.72	2658.85
433.91	2527.78
434.10	2523.10
434.28	2574.59
434.47	2602.68
434.66	2623.74
434.85	2745.45
435.03	2677.57
435.22	2609.70
435.41	2670.55
435.59	2715.02
435.78	2593.31
435.97	2750.13
436.16	2656.51
436.34	2794.60
436.53	2787.58
436.72	2848.43
436.90	2771.19
437.09	2764.17
437.28	2719.70
437.46	2782.90
437.65	2815.66
437.84	2832.05
438.02	2726.72
438.21	2850.77
438.40	2843.75
438.58	2946.73
438.77	2836.73
438.96	3000.57
439.14	3056.74
439.33	3005.25
439.52	2881.20
439.70	3098.87
439.89	3155.04
440.08	2979.50
440.26	3094.19
440.45	3089.51
440.63	3185.47
440.82	3251.00
441.01	3187.81
441.19	3218.24
441.38	3239.30
441.57	3349.31
441.75	3276.75
441.94	3309.52
442.12	3339.94
442.31	3337.60
442.50	3445.27
442.68	3442.93
442.87	3503.78
443.05	3452.29
443.24	3475.70
443.43	3440.59
443.61	3417.18
443.80	3428.88
443.98	3419.52
444.17	3393.78
444.35	3485.06
444.54	3609.11
444.73	3531.87
444.91	3639.53
445.10	3562.30
445.28	3454.63
445.47	3461.65
445.65	3606.77
445.84	3548.25
446.02	3520.17
446.21	3597.40
446.39	3510.80
446.58	3574.00
446.77	3564.64
446.95	3339.94
447.14	3541.23
447.32	3557.61
447.51	3648.90
447.69	3712.09
447.88	3648.90
448.06	3571.66
448.25	3665.28
448.43	3651.24
448.62	3700.39
448.80	3545.91
448.99	3660.60
449.17	3665.28
449.36	3653.58
449.54	3613.79
449.73	3669.96
449.91	3749.54
450.10	3789.33
450.28	3784.65
450.46	3824.44
450.65	3925.08
450.83	3894.65
451.02	3999.98
451.20	3934.44
451.39	3854.86
451.57	3756.56
451.76	3871.25
451.94	3962.53
452.13	3946.14
452.31	3808.05
452.49	4021.04
452.68	3913.38
452.86	3861.88
453.05	3964.87
453.23	4023.38
453.42	3976.57
453.60	3794.01
453.78	4004.66
453.97	3960.19
454.15	3999.98
454.34	4035.08
454.52	4067.85
454.70	4032.74
454.89	4205.94
455.07	4135.73
455.26	4067.85
455.44	4236.37
455.62	4238.71
455.81	4175.52
455.99	4229.35
456.17	4147.43
456.36	4348.72
456.54	4348.72
456.73	4407.23
456.91	4505.53
457.09	4411.91
457.28	4475.10
457.46	4304.25
457.64	4365.10
457.83	4479.79
458.01	4397.87
458.19	4482.13
458.38	4479.79
458.56	4571.07
458.74	4461.06
458.93	4613.20
459.11	4381.48
459.29	4423.61
459.48	4564.04
459.66	4655.33
459.84	4547.66
460.03	4631.92
460.21	4636.60
460.39	4624.90
460.57	4681.07
460.76	4697.46
460.94	4718.52
461.12	4809.80
461.31	4645.96
461.49	4662.35
461.67	4622.56
461.85	5055.56
462.04	4882.36
462.22	5188.97
462.40	4865.97
462.59	4741.93
462.77	4999.38
462.95	4819.16
463.13	4809.80
463.32	5078.96
463.50	4903.42
463.68	4964.28
463.86	5046.20
464.05	4779.37
464.23	4877.68
464.41	5013.43
464.59	4894.06
464.78	5228.76
464.96	4978.32
465.14	5022.79
465.32	5046.20
465.50	5219.39
465.69	5149.18
465.87	4980.66
466.05	5135.14
466.23	5130.45
466.41	5270.89
466.60	5181.95
466.78	5181.95
466.96	5062.58
467.14	5137.48
467.32	5198.33
467.51	5268.55
467.69	5125.77
467.87	5151.52
468.05	5355.15
468.23	5224.08
468.41	5149.18
468.60	5235.78
468.78	5210.03
468.96	5277.91
469.14	5376.21
469.32	5495.58
469.50	5352.81
469.69	5511.96
469.87	5481.53
470.05	5769.42
470.23	5633.67
470.41	5563.45
470.59	5582.18
470.77	5633.67
470.95	5568.13
471.14	5650.05
471.32	5556.43
471.50	5774.10
471.68	5692.18
471.86	5568.13
472.04	5930.92
472.22	6059.65
472.40	5816.23
472.58	5762.40
472.77	5891.13
472.95	6033.90
473.13	6141.57
473.31	5895.81
473.49	5820.91
473.67	5935.60
473.85	5891.13
474.03	6153.27
474.21	6237.53
474.39	6148.59
474.57	6209.44
474.75	6293.70
474.93	6235.19
475.12	6321.79
475.30	6338.17
475.48	6410.73
475.66	6399.02
475.84	6284.34
476.02	6604.99
476.20	6401.37
476.38	6626.06
476.56	6698.61
476.74	6672.87
476.92	6623.72
477.10	6637.76
477.28	6965.43
477.46	6832.02
477.64	6731.38
477.82	7087.14
478.00	7124.59
478.18	7103.53
478.36	7220.55
478.54	7208.85
478.72	7248.64
478.90	7339.92
479.08	7194.81
479.26	7403.11
479.44	7527.16
479.62	7499.08
479.80	7522.48
479.98	7581.00
480.16	7964.84
480.34	7648.87
480.52	7812.71
480.70	7747.17
480.88	7447.58
481.06	7901.65
481.24	7852.50
481.41	7955.48
481.59	8098.25
481.77	8241.03
481.95	8339.33
482.13	8458.70
482.31	8351.03
482.49	8582.74
482.67	8355.71
482.85	8479.76
483.03	8816.80
483.21	8725.52
483.39	8896.38
483.57	8730.20
483.74	8748.92
483.92	9020.42
484.10	8957.23
484.28	9076.60
484.46	9303.63
484.64	9380.87
484.82	9151.49
485.00	9240.44
485.18	9551.73
485.35	9631.30
485.53	9598.54
485.71	9745.99
485.89	9778.76
486.07	9643.01
486.25	9748.33
486.43	9928.55
486.61	9912.17
486.78	10097.07
486.96	10394.32
487.14	10380.28
487.32	10370.91
487.50	10408.36
487.68	10422.41
487.85	10719.65
488.03	10644.76
488.21	11040.31
488.39	10771.15
488.57	11070.73
488.75	11063.71
488.92	11052.01
489.10	11241.59
489.28	11424.15
489.46	11398.41
489.64	11265.00
489.81	11824.39
489.99	11810.34
490.17	11620.76
490.35	11955.46
490.53	11833.75
490.70	11747.15
490.88	11950.78
491.06	11976.52
491.24	11939.07
491.41	12285.47
491.59	12215.26
491.77	12259.73
491.95	12231.64
492.13	12552.29
492.30	12674.00
492.48	12788.69
492.66	12608.47
492.84	12624.85
493.01	12908.05
493.19	12645.91
493.37	12849.54
493.54	13018.06
493.72	13125.72
493.90	13200.62
494.08	13118.70
494.25	13399.57
494.43	13610.22
494.61	13472.12
494.79	13748.31
494.96	13921.51
495.14	13635.96
495.32	13984.70
495.49	13813.84
495.67	14185.99
495.85	14136.84
496.02	14396.64
496.20	14174.28
496.38	14527.71
496.55	14317.06
496.73	14616.65
496.91	14572.18
497.09	14611.96
497.26	14628.35
497.44	14736.01
497.62	14672.82
497.79	14920.92
497.97	15033.26
498.14	15316.47
498.32	15508.39
498.50	15016.88
498.67	15426.47
498.85	15185.40
499.03	15276.68
499.20	15400.72
499.38	15697.97
499.56	15609.03
499.73	15510.73
499.91	15772.87
500.08	15957.77
500.26	15641.80
500.44	15793.94
500.61	15936.71
500.79	15960.11
500.97	16088.84
501.14	16074.80
501.32	16137.99
501.49	16215.23
501.67	16255.02
501.84	16063.10
502.02	16606.10
502.20	16421.20
502.37	16695.04
502.55	16505.46
502.72	16924.41
502.90	16484.39
503.07	16566.31
503.25	16908.03
503.43	16512.48
503.60	17329.33
503.78	17310.60
503.95	17025.06
504.13	17074.21
504.30	17069.53
504.48	17317.62
504.65	17338.69
504.83	17607.85
505.01	17699.13
505.18	17575.08
505.36	17598.49
505.53	17544.66
505.71	17415.93
505.88	17666.36
506.06	17329.33
506.23	17984.68
506.41	18012.76
506.58	17781.05
506.76	17982.34
506.93	18054.89
507.11	17649.98
507.28	17926.16
507.46	18195.32
507.63	18277.24
507.81	18302.99
507.98	18324.05
508.16	18457.46
508.33	18321.71
508.50	18260.86
508.68	18485.55
508.85	18661.09
509.03	18611.94
509.20	18775.78
509.38	18824.93
509.55	18998.13
509.73	18789.82
509.90	18918.55
510.08	18738.33
510.25	18834.29
510.42	18913.87
510.60	19211.12
510.77	19213.46
510.95	19295.38
511.12	19185.37
511.30	19323.46
511.47	19232.18
511.64	19243.88
511.82	19566.88
511.99	19681.56
512.17	19398.36
512.34	19543.47
512.51	19756.46
512.69	19791.57
512.86	19964.77
513.04	19737.74
513.21	19719.01
513.38	20077.12
513.56	20215.21
513.73	19833.70
513.90	20262.02
514.08	20051.37
514.25	20306.49
514.43	20381.38
514.60	20505.43
514.77	20320.53
514.95	20732.47
515.12	20367.34
515.29	20627.14
515.47	20374.36
515.64	20652.89
515.81	20608.42
515.99	21006.31
516.16	21097.59
516.33	20868.22
516.51	21055.46
516.68	20896.30
516.85	21144.40
517.03	20805.02
517.20	21163.12
517.37	20786.30
517.54	21142.06
517.72	21092.91
517.89	21310.58
518.06	20947.79
518.24	21146.74
518.41	21270.79
518.58	21301.22
518.75	21331.64
518.93	21497.82
519.10	21582.08
519.27	21834.86
519.45	21568.04
519.62	21699.11
519.79	21525.91
519.96	22094.66
520.14	21851.24
520.31	22087.64
520.48	21991.67
520.65	21823.16
520.83	22038.48
521.00	21947.20
521.17	21970.61
521.34	22120.40
521.52	21680.38
521.69	22033.80
521.86	22139.13
522.03	22562.76
522.20	22317.01
522.38	22314.67
522.55	22668.09
522.72	22586.17
522.89	22553.40
523.07	22792.14
523.24	22419.99
523.41	22565.10
523.58	22721.92
523.75	23147.90
523.92	22731.28
524.10	22740.64
524.27	22838.95
524.44	23049.60
524.61	23082.36
524.78	23068.32
524.96	23157.26
525.13	23183.01
525.30	23388.97
525.47	23173.64
525.64	23332.80
525.81	23199.39
525.98	23358.55
526.16	23307.05
526.33	23536.43
526.50	23702.61
526.67	23250.88
526.84	23573.88
527.01	23747.08
527.18	23538.77
527.36	23726.01
527.53	23798.57
527.70	23889.85
527.87	24123.90
528.04	23749.42
528.21	23992.83
528.38	23990.49
528.55	24259.65
528.72	24065.39
528.89	24151.99
529.07	23983.47
529.24	24226.89
529.41	24528.81
529.58	24091.13
529.75	24280.72
529.92	24257.31
530.09	24325.19
530.26	24285.40
530.43	24271.36
530.60	23985.81
530.77	24549.88
530.94	24474.98
531.11	24409.45
531.28	24542.86
531.46	24613.07
531.63	24304.12
531.80	24465.62
531.97	24893.94
532.14	24943.09
532.31	24723.08
532.48	24900.96
532.65	24919.68
532.82	24730.10
532.99	24903.30
533.16	24744.14
533.33	25373.75
533.50	25181.82
533.67	25230.98
533.84	25326.94
534.01	25001.60
534.18	25212.25
534.35	24940.75
534.52	25085.86
534.69	25696.74
534.86	25333.96
535.03	25249.70
535.20	25429.92
535.37	25326.94
535.54	25806.75
535.71	25142.03
535.88	25275.45
536.05	25158.42
536.22	25802.07
536.38	25867.60
536.55	25678.02
536.72	25654.61
536.89	25699.08
537.06	25907.39
537.23	26017.40
537.40	25696.74
537.57	25525.88
537.74	25993.99
537.91	25972.92
538.08	25802.07
538.25	25883.98
538.42	25881.64
538.59	25912.07
538.75	25872.28
538.92	26209.32
539.09	25921.43
539.26	25888.67
539.43	26359.11
539.60	26288.90
539.77	26326.35
539.94	26569.76
540.11	26160.17
540.28	25848.88
540.44	26356.77
540.61	26183.57
540.78	26188.25
540.95	26256.13
541.12	26459.76
541.29	26553.38
541.46	26373.16
541.62	26672.74
541.79	26536.99
541.96	26235.06
542.13	26560.40
542.30	26742.96
542.47	26838.92
542.63	26541.68
542.80	27222.77
542.97	27175.96
543.14	26995.74
543.31	26890.41
543.48	26867.01
543.64	27276.60
543.81	27281.28
543.98	27576.19
544.15	26927.86
544.32	27534.06
544.48	27623.00
544.65	27030.85
544.82	27597.26
544.99	27152.55
545.16	27211.07
545.32	27541.08
545.49	27482.57
545.66	27693.22
545.83	27711.94
546.00	27442.78
546.16	27620.66
546.33	27328.10
546.50	27407.67
546.67	27793.86
546.83	26951.27
547.00	27782.16
547.17	27833.65
547.34	28247.93
547.50	27510.66
547.67	28041.96
547.84	28081.75
548.00	27915.57
548.17	28493.68
548.34	28025.57
548.51	28039.62
548.67	28304.10
548.84	28041.96
549.01	27995.15
549.18	27889.82
549.34	28004.51
549.51	27915.57
549.68	28072.39
549.84	28297.08
550.01	27924.93
550.18	28173.03
550.34	28559.22
550.51	28531.13
550.68	28268.99
550.84	28376.66
551.01	28327.50
551.18	28215.16
551.34	28264.31
551.51	28046.64
551.68	28507.72
551.84	28568.58
552.01	28634.11
552.18	28566.24
552.34	27946.00
552.51	28694.97
552.68	28685.61
552.84	28521.77
553.01	28849.44
553.18	28655.18
553.34	28744.12
553.51	28730.08
553.67	28678.58
553.84	29277.76
554.01	28973.49
554.17	29273.08
554.34	28872.85
554.51	28851.78
554.67	28980.51
554.84	28884.55
555.00	29036.69
555.17	28851.78
555.33	28989.88
555.50	28929.02
555.67	29048.39
555.83	29088.18
556.00	29029.66
556.16	29186.48
556.33	29015.62
556.50	28940.72
556.66	28994.56
556.83	28966.47
556.99	29277.76
557.16	29350.32
557.32	29289.46
557.49	29067.11
557.65	29109.24
557.82	29240.31
557.98	29212.23
558.15	29406.49
558.32	29596.07
558.48	29631.18
558.65	29355.00
558.81	29429.90
558.98	29713.10
559.14	29266.06
559.31	29259.04
559.47	29619.48
559.64	29450.96
559.80	29666.29
559.97	29612.46
560.13	29439.26
560.30	29867.58
560.46	29647.57
560.63	29275.42
560.79	30082.91
560.96	29799.70
561.12	29710.76
561.29	29317.55
561.45	29748.21
561.61	29874.60
561.78	29954.18
561.94	30078.22
562.11	29830.13
562.27	29848.85
562.44	29734.17
562.60	29958.86
562.77	30349.73
562.93	29832.47
563.10	30157.80
563.26	29923.75
563.42	29993.97
563.59	29853.53
563.75	30237.38
563.92	29872.26
564.08	29687.36
564.24	29685.01
564.41	29916.73
564.57	29851.19
564.74	29837.15
564.90	29984.60
565.07	29907.37
565.23	30059.50
565.39	30146.10
565.56	30031.41
565.72	29694.38
565.88	29809.06
566.05	30197.59
566.21	29830.13
566.38	29846.51
566.54	30162.48
566.70	30019.71
566.87	30555.69
567.03	30478.46
567.19	30398.88
567.36	30424.62
567.52	30033.75
567.68	30345.05
567.85	30188.23
568.01	30192.91
568.17	30506.54
568.34	30328.66
568.50	30141.42
568.66	30333.34
568.83	30452.71
568.99	30288.87
569.15	30321.64
569.32	30256.11
569.48	30433.99
569.64	30225.68
569.81	30719.53
569.97	30363.77
570.13	30424.62
570.30	30052.48
570.46	30499.52
570.62	30424.62
570.78	29977.58
570.95	30319.30
571.11	30080.56
571.27	30323.98
571.43	29928.43
571.60	30345.05
571.76	30115.67
571.92	30501.86
572.09	30597.82
572.25	30871.67
572.41	30398.88
572.57	30494.84
572.74	30785.07
572.90	30623.57
573.06	30345.05
573.22	30611.87
573.38	30693.79
573.55	30511.22
573.71	30597.82
573.87	30808.47
574.03	30522.93
574.20	30876.35
574.36	30127.38
574.52	30441.01
574.68	30504.20
574.84	30452.71
575.01	30700.81
575.17	30401.22
575.33	30298.23
575.49	30534.63
575.65	30506.54
575.82	30859.96
575.98	30848.26
576.14	30520.59
576.30	30682.08
576.46	30654.00
576.62	30766.34
576.79	30555.69
576.95	30459.73
577.11	30817.83
577.27	30817.83
577.43	30815.49
577.59	30771.02
577.75	30771.02
577.92	30735.92
578.08	30658.68
578.24	30487.82
578.40	30710.17
578.56	30532.29
578.72	30490.16
578.88	30941.88
579.04	30764.00
579.21	30881.03
579.37	30878.69
579.53	30595.48
579.69	30698.47
579.85	30541.65
580.01	30686.76
580.17	30579.10
580.33	30941.88
580.49	30918.48
580.65	30714.85
580.82	30888.05
580.98	30642.29
581.14	30579.10
581.30	30728.89
581.46	30852.94
581.62	30941.88
581.78	30895.07
581.94	30976.99
582.10	30600.16
582.26	30836.56
582.42	30536.97
582.58	31112.74
582.74	31246.15
582.90	31147.85
583.06	30864.64
583.22	30866.98
583.38	30597.82
583.54	30944.22
583.70	30717.19
583.86	30993.37
584.02	30338.02
584.18	30628.25
584.34	30768.68
584.50	31246.15
584.66	31187.64
584.82	30834.22
584.98	30813.15
585.14	31206.36
585.30	30602.50
585.46	30618.89
585.62	30670.38
585.78	31215.72
585.94	30558.03
586.10	31103.38
586.26	31182.96
586.42	31157.21
586.58	30764.00
586.74	30686.76
586.90	30373.13
587.06	30934.86
587.22	31168.91
587.38	30787.41
587.54	30948.90
587.70	31395.95
587.86	30974.65
588.02	31079.97
588.18	31438.08
588.34	31363.18
588.49	30941.88
588.65	31185.30
588.81	30897.41
588.97	31152.53
589.13	31037.84
589.29	31101.04
589.45	31365.52
589.61	31257.85
589.77	31601.91
589.93	31271.90
590.08	31218.07
590.24	31269.56
590.40	31690.85
590.56	31737.66
590.72	31372.54
590.88	30993.37
591.04	30946.56
591.20	31494.25
591.35	31302.32
591.51	31604.25
591.67	31433.39
591.83	31405.31
591.99	31337.43
592.15	31316.37
592.31	31304.67
592.46	31084.65
592.62	30967.63
592.78	30829.54
592.94	30820.17
593.10	31384.24
593.26	31531.70
593.41	31505.95
593.57	31498.93
593.73	31234.45
593.89	31398.29
594.05	31278.92
594.20	31555.10
594.36	31681.49
594.52	31421.69
594.68	31360.84
594.84	31122.10
594.99	31541.06
595.15	31269.56
595.31	31550.42
595.47	31402.97
595.62	31555.10
595.78	31318.71
595.94	31648.72
596.10	31578.51
596.25	31496.59
596.41	30834.22
596.57	31037.84
596.73	31763.41
596.88	31122.10
597.04	31332.75
597.20	31756.39
597.36	31665.11
597.51	31967.04
597.67	31782.13
597.83	31414.67
597.99	31632.34
598.14	31541.06
598.30	31473.18
598.46	31754.05
598.61	31960.02
598.77	31393.61
598.93	31512.97
599.09	31634.68
599.24	31578.51
599.40	31744.69
599.56	31983.42
599.71	31782.13
599.87	31625.32
600.03	31316.37
600.18	31241.47
600.34	31229.77
600.50	31512.97
600.65	31452.12
600.81	31639.36
600.97	31704.90
601.12	32219.81
601.28	31681.49
601.44	31632.34
601.59	31758.73
601.75	31777.45
601.91	31754.05
602.06	31740.00
602.22	31718.94
602.37	31358.50
602.53	31475.52
602.69	31695.53
602.84	31421.69
603.00	32292.37
603.16	31445.10
603.31	31826.60
603.47	31501.27
603.62	31395.95
603.78	31983.42
603.94	31470.84
604.09	31810.22
604.25	31379.56
604.40	31150.19
604.56	31765.75
604.71	31622.98
604.87	31562.12
605.03	31761.07
605.18	31620.64
605.34	31552.76
605.49	31564.46
605.65	31349.14
605.80	31159.55
605.96	31622.98
606.12	31487.23
606.27	31608.93
606.43	31133.81
606.58	31784.48
606.74	31541.06
606.89	31908.52
607.05	31735.32
607.20	31269.56
607.36	31442.76
607.51	31564.46
607.67	31171.25
607.82	31138.49
607.98	31314.03
608.13	31108.06
608.29	31585.53
608.44	31227.43
608.60	31365.52
608.75	31892.14
608.91	31512.97
609.06	31545.74
609.22	31456.80
609.37	31110.40
609.53	31618.30
609.68	31400.63
609.84	31784.48
609.99	31108.06
610.15	30967.63
610.30	31335.09
610.46	31246.15
610.61	31075.29
610.76	31353.82
610.92	31246.15
611.07	31447.44
611.23	31512.97
611.38	31187.64
611.54	30962.95
611.69	30862.30
611.84	31157.21
612.00	30799.11
612.15	31028.48
612.31	31395.95
612.46	30993.37
612.62	31463.82
612.77	31051.89
612.92	31112.74
613.08	31037.84
613.23	31309.35
613.39	31288.28
613.54	30841.24
613.69	30941.88
613.85	30742.94
614.00	31117.42
614.15	31023.80
614.31	30836.56
614.46	31110.40
614.62	31084.65
614.77	31349.14
614.92	30899.75
615.08	31021.46
615.23	30923.16
615.38	31164.23
615.54	30848.26
615.69	31143.17
615.84	31028.48
616.00	31026.14
616.15	30581.44
616.30	30764.00
616.46	30511.22
616.61	30773.36
616.76	31267.22
616.92	31026.14
617.07	30780.39
617.22	30852.94
617.37	30469.09
617.53	30485.48
617.68	30691.44
617.83	30242.06
617.99	30213.98
618.14	30457.39
618.29	30429.30
618.45	30768.68
618.60	30654.00
618.75	31061.25
618.90	30504.20
619.06	30803.79
619.21	30221.00
619.36	30494.84
619.51	30417.60
619.67	30405.90
619.82	29982.26
619.97	30670.38
620.12	30377.81
620.28	30349.73
620.43	30473.78
620.58	30499.52
620.73	30747.62
620.89	30649.32
621.04	30464.41
621.19	30455.05
621.34	30536.97
621.49	30092.27
621.65	30223.34
621.80	30094.61
621.95	29991.62
622.10	30239.72
622.25	30272.49
622.41	30469.09
622.56	30424.62
622.71	30270.15
622.86	30160.14
623.01	29963.54
623.16	29935.45
623.32	30239.72
623.47	29869.92
623.62	29902.68
623.77	29694.38
623.92	30010.35
624.07	29996.31
624.23	30043.12
624.38	29984.60
624.53	29986.94
624.68	29788.00
624.83	30242.06
624.98	30033.75
625.13	30054.82
625.29	30230.36
625.44	30279.51
625.59	29673.31
625.74	29764.59
625.89	29685.01
626.04	29582.03
626.19	29589.05
626.34	29305.85
626.49	29848.85
626.65	29579.69
626.80	30054.82
626.95	29565.65
627.10	29647.57
627.25	29750.55
627.40	29764.59
627.55	29191.16
627.70	29525.86
627.85	29383.09
628.00	29823.11
628.15	29163.08
628.30	29326.91
628.45	29259.04
628.60	29385.43
628.76	29443.94
628.91	29584.37
629.06	29523.52
629.21	29748.21
629.36	29457.98
629.51	29013.28
629.66	29127.97
629.81	28594.32
629.96	29228.61
630.11	29247.33
630.26	29015.62
630.41	29090.52
630.56	28903.28
630.71	29392.45
630.86	29195.84
631.01	29064.77
631.16	29490.75
631.31	29223.93
631.46	29212.23
631.61	29296.49
631.76	29099.88
631.91	28837.74
632.06	29462.66
632.21	28734.76
632.36	28704.33
632.51	28816.68
632.66	29172.44
632.81	29022.64
632.96	28966.47
633.10	28772.21
633.25	28538.15
633.40	29104.56
633.55	29165.42
633.70	28606.03
633.85	28678.58
634.00	28673.90
634.15	28641.14
634.30	28711.35
634.45	28673.90
634.60	28613.05
634.75	28811.99
634.90	28744.12
635.05	28903.28
635.19	28779.23
635.34	29062.43
635.49	28781.57
635.64	28704.33
635.79	28973.49
635.94	28718.37
636.09	28643.48
636.24	28393.04
636.39	28662.20
636.53	28531.13
636.68	27899.19
636.83	28435.17
636.98	28748.80
637.13	28449.21
637.28	28362.61
637.43	28573.26
637.57	28535.81
637.72	28196.43
637.87	28510.07
638.02	28648.16
638.17	28264.31
638.32	28161.33
638.46	28411.76
638.61	28245.58
638.76	28144.94
638.91	28170.69
639.06	27960.04
639.20	28067.70
639.35	28451.55
639.50	28072.39
639.65	28276.01
639.80	28521.77
639.94	28151.96
640.09	28226.86
640.24	28072.39
640.39	28088.77
640.54	28208.14
640.68	27763.43
640.83	27852.38
640.98	27646.41
641.13	27711.94
641.27	27721.30
641.42	27931.95
641.57	27992.81
641.72	27983.44
641.86	27929.61
642.01	27627.68
642.16	27585.55
642.31	28023.23
642.45	27517.68
642.60	27452.14
642.75	27529.38
642.90	27674.49
643.04	27885.14
643.19	27562.15
643.34	27718.96
643.48	27604.28
643.63	27594.92
643.78	27496.61
643.93	27768.12
644.07	27976.42
644.22	27847.69
644.37	27365.54
644.51	27466.19
644.66	27541.08
644.81	27374.91
644.95	27566.83
645.10	27679.18
645.25	27246.18
645.39	27147.87
645.54	27538.74
645.69	27442.78
645.83	27417.04
645.98	27660.45
646.13	27634.71
646.27	27440.44
646.42	27337.46
646.57	27384.27
646.71	27353.84
646.86	27351.50
647.00	27051.91
647.15	27363.20
647.30	27257.88
647.44	27470.87
647.59	27304.69
647.74	26693.81
647.88	27061.27
648.03	27145.53
648.17	27665.13
648.32	27445.12
648.47	27384.27
648.61	27304.69
648.76	27297.67
648.90	27246.18
649.05	27204.05
649.20	26558.06
649.34	27180.64
649.49	26724.24
649.63	26775.73
649.78	26838.92
649.92	26757.00
650.07	27101.06
650.21	26984.04
650.36	27119.79
650.51	26778.07
650.65	27061.27
650.80	26618.91
650.94	26717.22
651.09	26749.98
651.23	26857.65
651.38	26679.77
651.52	26639.98
651.67	26536.99
651.81	26932.54
651.96	27108.08
652.10	27061.27
652.25	27007.44
652.39	26581.46
652.54	26845.94
652.68	26602.53
652.83	26824.88
652.97	26794.45
653.12	26820.20
653.26	26412.95
653.41	26632.96
653.55	26572.10
653.70	26405.92
653.84	26565.08
653.99	26387.20
654.13	26565.08
654.27	26246.77
654.42	26387.20
654.56	26403.58
654.71	26801.47
654.85	26150.81
655.00	26799.13
655.14	26417.63
655.29	26567.42
655.43	26298.26
655.57	26438.69
655.72	25919.09
655.86	26281.88
656.01	25982.29
656.15	26319.32
656.30	25965.90
656.44	26450.39
656.58	26251.45
656.73	26206.98
656.87	26094.63
657.01	25956.54
657.16	25872.28
657.30	26256.13
657.45	26111.02
657.59	26366.13
657.73	26141.44
657.88	25905.05
658.02	26202.30
658.16	26087.61
658.31	26017.40
658.45	26190.59
658.60	25663.97
658.74	25633.55
658.88	25968.24
659.03	25834.83
659.17	25984.63
659.31	25989.31
659.46	26127.40
659.60	26010.37
659.74	25617.16
659.89	25750.57
660.03	25364.39
660.17	25811.43
660.32	25713.13
660.46	25277.79
660.60	25158.42
660.74	25223.95
660.89	25240.34
661.03	25067.14
661.17	24907.98
661.32	24957.13
661.46	25612.48
661.60	25380.77
661.74	25539.93
661.89	25563.33
662.03	25717.81
662.17	25127.99
662.31	24725.42
662.46	25345.66
662.60	25008.62
662.74	25284.81
662.88	24790.95
663.03	24996.92
663.17	24786.27
663.31	24524.13
663.45	24453.92
663.60	24580.31
663.74	24545.20
663.88	24915.00
664.02	24690.31
664.17	25048.41
664.31	24409.45
664.45	24423.49
664.59	24769.89
664.73	24989.90
664.88	24589.67
665.02	24229.23
665.16	24575.62
665.30	24540.52
665.44	24098.16
665.59	24044.32
665.73	24051.34
665.87	24465.62
666.01	24121.56
666.15	24395.40
666.29	24219.86
666.44	23939.00
666.58	24070.07
666.72	24287.74
666.86	24203.48
667.00	24474.98
667.14	24032.62
667.28	23981.13
667.43	24058.37
667.57	23995.17
667.71	23857.08
667.85	23946.02
667.99	23688.56
668.13	23477.91
668.27	23744.73
668.41	23997.51
668.56	23887.51
668.70	23880.49
668.84	23697.92
668.98	23578.56
669.12	23578.56
669.26	23590.26
669.40	23424.08
669.54	23370.25
669.68	23522.38
669.82	23356.21
669.96	23213.43
670.10	22946.61
670.25	23047.26
670.39	23192.37
670.53	23084.70
670.67	22932.57
670.81	23112.79
670.95	23358.55
671.09	23157.26
671.23	23250.88
671.37	23136.20
671.51	22845.97
671.65	23000.44
671.79	23234.50
671.93	22698.52
672.07	22796.82
672.21	22852.99
672.35	22478.50
672.49	22530.00
672.63	22434.03
672.77	22019.76
672.91	22642.34
673.05	22586.17
673.19	22611.92
673.33	22415.31
673.47	22230.41
673.61	22148.49
673.75	22405.95
673.89	22286.58
674.03	22061.89
674.17	22146.15
674.31	22288.92
674.45	22059.55
674.59	21916.78
674.73	22099.34
674.87	21998.70
675.01	21769.32
675.15	21914.44
675.29	21839.54
675.43	21359.73
675.56	22101.68
675.70	21783.37
675.84	21626.55
675.98	21364.41
676.12	21605.49
676.26	21678.04
676.40	21542.29
676.54	21795.07
676.68	21207.59
676.82	21193.55
676.96	21029.71
677.10	21085.89
677.23	21088.23
677.37	20655.23
677.51	20975.88
677.65	21020.35
677.79	20868.22
677.93	20561.61
678.07	20580.33
678.21	20772.25
678.34	20568.63
678.48	20540.54
678.62	20168.40
678.76	20563.95
678.90	20130.95
679.04	20411.81
679.18	20088.82
679.31	20278.40
679.45	20376.70
679.59	20030.30
679.73	19892.21
679.87	19892.21
680.00	19969.45
680.14	19747.10
680.28	19571.56
680.42	19566.88
680.56	19775.19
680.70	19686.25
680.83	19711.99
680.97	19426.45
681.11	19592.62
681.25	19477.94
681.39	19424.11
681.52	19400.70
681.66	19164.31
681.80	19183.03
681.94	19213.46
682.07	19426.45
682.21	19122.18
682.35	18799.18
682.49	18897.49
682.62	18511.30
682.76	18494.91
682.90	18925.57
683.04	18836.63
683.17	19016.85
683.31	18764.07
683.45	18670.45
683.59	18684.50
683.72	18281.92
683.86	18408.31
684.00	18403.63
684.13	18443.42
684.27	18246.82
684.41	18003.40
684.55	17961.27
684.68	17710.83
684.82	17916.80
684.96	17680.41
685.09	17926.16
685.23	17689.77
685.37	17841.90
685.50	17862.97
685.64	17736.58
685.78	17699.13
685.91	17928.50
686.05	17968.29
686.19	17661.68
686.32	17600.83
686.46	17448.69
686.60	17256.77
686.73	17366.78
686.87	17219.32
687.01	17228.68
687.14	16748.87
687.28	17216.98
687.42	16659.93
687.55	16418.86
687.69	16734.83
687.82	16879.94
687.96	16800.37
688.10	16430.56
688.23	16856.54
688.37	16650.57
688.50	16465.67
688.64	16631.85
688.78	16489.07
688.91	16369.71
689.05	16219.91
689.18	16257.36
689.32	15981.18
689.46	16018.63
689.59	15730.74
689.73	15992.88
689.86	15728.40
690.00	15676.91
690.13	15906.28
690.27	15950.75
690.41	15950.75
690.54	15578.61
690.68	15719.04
690.81	15585.63
690.95	15704.99
691.08	15674.57
691.22	15510.73
691.35	15522.43
691.49	15442.85
691.62	15358.60
691.76	14974.75
691.89	15304.76
692.03	14752.40
692.16	15070.71
692.30	14911.55
692.43	14925.60
692.57	14974.75
692.70	14616.65
692.84	14829.63
692.97	14527.71
693.11	14714.95
693.24	14576.86
693.38	14391.95
693.51	14558.13
693.65	14417.70
693.78	14471.53
693.92	14347.48
694.05	14026.83
694.19	14462.17
694.32	14223.44
694.45	14068.96
694.59	13909.80
694.72	13877.04
694.86	13816.18
694.99	13453.40
695.13	13554.04
695.26	13699.16
695.39	13928.53
695.53	13617.24
695.66	13532.98
695.80	13593.83
695.93	13584.47
696.07	13734.26
696.20	13715.54
696.33	13661.71
696.47	13399.57
696.60	13039.12
696.73	13319.99
696.87	13174.88
697.00	13153.81
697.14	13015.72
697.27	12727.83
697.40	12891.67
697.54	12858.90
697.67	12755.92
697.80	12739.54
697.94	12589.74
698.07	12456.33
698.21	12547.61
698.34	12587.40
698.47	12496.12
698.61	12442.29
698.74	12793.37
698.87	12510.16
699.01	12461.01
699.14	12257.39
699.27	12315.90
699.40	12273.77
699.54	12156.74
699.67	12088.87
699.80	12004.61
699.94	11882.90
700.07	11812.68
700.20	11829.07
700.34	11564.59
700.47	11779.92
700.60	11613.74
700.73	11597.35
700.87	11758.85
701.00	11515.44
701.13	11627.78
701.26	11686.29
701.40	11620.76
701.53	11609.06
701.66	11499.05
701.79	11147.97
701.93	11300.11
702.06	11084.78
702.19	11049.67
702.32	11260.32
702.46	11009.88
702.59	10902.22
702.72	10839.02
702.85	10817.96
702.99	10855.40
703.12	10721.99
703.25	10579.22
703.38	10696.25
703.51	10724.33
703.65	10684.55
703.78	10630.71
703.91	10527.73
704.04	10731.36
704.17	10576.88
704.31	10658.80
704.44	10485.60
704.57	10487.94
704.70	9996.43
704.83	10352.19
704.96	10160.27
705.10	10162.61
705.23	9905.15
>>>>>End Processed Spectral Data<<<<<
