SpectraSuite Data File
++++++++++++++++++++++++++++++++++++
Date: Fri Oct 18 13:58:23 GMT-05:00 2013
User: bianchi
Dark Spectrum Present: No
Reference Spectrum Present: No
Number of Sampled Component Spectra: 1
Spectrometers: USB2+H05261
Integration Time (usec): 50000 (USB2+H05261)
Spectra Averaged: 1 (USB2+H05261)
Boxcar Smoothing: 0 (USB2+H05261)
Correct for Electrical Dark: No (USB2+H05261)
Strobe/Lamp Enabled: No (USB2+H05261)
Correct for Detector Non-linearity: No (USB2+H05261)
Correct for Stray Light: No (USB2+H05261)
Number of Pixels in Processed Spectrum: 2048
>>>>>Begin Processed Spectral Data<<<<<
365.73	0.00
365.92	0.00
366.12	0.00
366.32	0.00
366.52	0.00
366.72	0.00
366.91	0.00
367.11	0.00
367.31	0.00
367.51	0.00
367.70	0.00
367.90	0.00
368.10	0.00
368.30	0.00
368.49	0.00
368.69	0.00
368.89	0.00
369.09	0.00
369.28	0.00
369.48	0.00
369.68	0.00
369.87	0.00
370.07	0.00
370.27	0.00
370.47	0.00
370.66	67.88
370.86	168.52
371.06	128.73
371.25	241.08
371.45	220.01
371.65	187.24
371.84	156.82
372.04	203.63
372.24	177.88
372.44	208.31
372.63	217.67
372.83	224.69
373.03	220.01
373.22	161.50
373.42	250.44
373.62	231.71
373.81	205.97
374.01	208.31
374.21	264.48
374.40	252.78
374.60	227.03
374.79	198.95
374.99	173.20
375.19	241.08
375.38	231.71
375.58	210.65
375.78	187.24
375.97	231.71
376.17	341.72
376.37	255.12
376.56	318.31
376.76	238.73
376.95	271.50
377.15	358.10
377.35	285.55
377.54	283.20
377.74	257.46
377.93	257.46
378.13	299.59
378.33	266.82
378.52	304.27
378.72	325.33
378.91	374.49
379.11	229.37
379.31	348.74
379.50	269.16
379.70	318.31
379.89	290.23
380.09	294.91
380.28	339.38
380.48	383.85
380.68	301.93
380.87	358.10
381.07	301.93
381.26	304.27
381.46	327.68
381.65	369.80
381.85	367.46
382.04	367.46
382.24	353.42
382.43	308.95
382.63	292.57
382.83	409.59
383.02	334.70
383.22	402.57
383.41	320.65
383.61	362.78
383.80	411.93
384.00	402.57
384.19	330.02
384.39	376.83
384.58	381.51
384.78	435.34
384.97	381.51
385.17	390.87
385.36	395.55
385.56	383.85
385.75	386.19
385.95	362.78
386.14	510.24
386.34	297.25
386.53	407.25
386.72	414.27
386.92	475.13
387.11	451.72
387.31	411.93
387.50	360.44
387.70	503.22
387.89	442.36
388.09	409.59
388.28	397.89
388.48	531.30
388.67	402.57
388.86	330.02
389.06	465.77
389.25	503.22
389.45	486.83
389.64	538.32
389.84	423.64
390.03	465.77
390.22	512.58
390.42	411.93
390.61	430.66
390.81	514.92
391.00	500.87
391.19	465.77
391.39	472.79
391.58	559.39
391.78	519.60
391.97	493.85
392.16	472.79
392.36	484.49
392.55	582.79
392.75	475.13
392.94	521.94
393.13	580.45
393.33	505.56
393.52	634.29
393.71	559.39
393.91	582.79
394.10	620.24
394.29	601.52
394.49	634.29
394.68	561.73
394.88	641.31
395.07	624.92
395.26	634.29
395.46	580.45
395.65	655.35
395.84	641.31
396.04	695.14
396.23	662.37
396.42	643.65
396.62	688.12
396.81	613.22
397.00	662.37
397.19	706.84
397.39	681.10
397.58	718.54
397.77	699.82
397.97	648.33
398.16	653.01
398.35	730.25
398.55	699.82
398.74	716.20
398.93	704.50
399.12	713.86
399.32	669.39
399.51	744.29
399.70	744.29
399.90	777.06
400.09	767.70
400.28	835.57
400.47	697.48
400.67	748.97
400.86	744.29
401.05	798.12
401.24	830.89
401.44	795.78
401.63	887.06
401.82	774.72
402.01	802.80
402.21	744.29
402.40	685.78
402.59	821.53
402.78	875.36
402.97	828.55
403.17	870.68
403.36	847.27
403.55	725.57
403.74	870.68
403.93	856.64
404.13	938.55
404.32	905.79
404.51	842.59
404.70	919.83
404.89	954.94
405.09	1081.33
405.28	957.28
405.47	947.92
405.66	1043.88
405.85	940.90
406.05	938.55
406.24	964.30
406.43	947.92
406.62	1048.56
406.81	1081.33
407.00	1008.77
407.20	1015.79
407.39	1053.24
407.58	1048.56
407.77	992.39
407.96	1156.22
408.15	1011.11
408.34	1011.11
408.54	992.39
408.73	1067.28
408.92	1036.86
409.11	1160.91
409.30	1228.78
409.49	1137.50
409.68	1102.39
409.87	1142.18
410.07	1214.74
410.26	1097.71
410.45	1186.65
410.64	1160.91
410.83	1188.99
411.02	1324.74
411.21	1313.04
411.40	1296.66
411.59	1259.21
411.78	1217.08
411.98	1242.82
412.17	1238.14
412.36	1224.10
412.55	1294.32
412.74	1416.02
412.93	1317.72
413.12	1324.74
413.31	1364.53
413.50	1416.02
413.69	1469.86
413.88	1490.92
414.07	1458.15
414.26	1406.66
414.45	1533.05
414.64	1439.43
414.83	1551.78
415.02	1521.35
415.22	1502.62
415.41	1605.61
415.60	1486.24
415.79	1502.62
415.98	1708.59
416.17	1514.33
416.36	1650.08
416.55	1544.75
416.74	1629.01
416.93	1629.01
417.12	1762.42
417.31	1696.89
417.50	1680.50
417.69	1692.21
417.88	1701.57
418.07	1666.46
418.26	1760.08
418.45	1743.70
418.64	1846.68
418.83	1781.15
419.02	1820.94
419.21	1783.49
419.39	1799.87
419.58	1792.85
419.77	1825.62
419.96	1865.41
420.15	1795.19
420.34	1846.68
420.53	1907.54
420.72	1926.26
420.91	1940.30
421.10	1867.75
421.29	1891.15
421.48	1928.60
421.67	1937.96
421.86	1863.07
422.05	1987.11
422.24	1998.82
422.43	1900.52
422.61	1942.64
422.80	2012.86
422.99	1935.62
423.18	2010.52
423.37	2104.14
423.56	2008.18
423.75	1963.71
423.94	1975.41
424.13	1928.60
424.32	1872.43
424.50	2115.84
424.69	1991.80
424.88	2045.63
425.07	2015.20
425.26	2097.12
425.45	1966.05
425.64	1968.39
425.83	2024.56
426.01	2059.67
426.20	2076.06
426.39	2026.90
426.58	2050.31
426.77	2071.37
426.96	2106.48
427.15	2076.06
427.33	2181.38
427.52	2071.37
427.71	2129.89
427.90	2033.93
428.09	2104.14
428.28	2188.40
428.46	2181.38
428.65	2298.41
428.84	2209.47
429.03	2211.81
429.22	2165.00
429.40	2289.04
429.59	2211.81
429.78	2289.04
429.97	2216.49
430.16	2263.30
430.34	2385.01
430.53	2333.51
430.72	2186.06
430.91	2380.32
431.10	2380.32
431.28	2338.20
431.47	2352.24
431.66	2359.26
431.85	2310.11
432.03	2253.94
432.22	2420.11
432.41	2387.35
432.60	2396.71
432.79	2483.31
432.97	2527.78
433.16	2588.63
433.35	2471.61
433.54	2525.44
433.72	2562.89
433.91	2392.03
434.10	2471.61
434.28	2609.70
434.47	2492.67
434.66	2614.38
434.85	2616.72
435.03	2649.49
435.22	2569.91
435.41	2684.59
435.59	2696.30
435.78	2623.74
435.97	2649.49
436.16	2576.93
436.34	2635.44
436.53	2640.12
436.72	2747.79
436.90	2635.44
437.09	2675.23
437.28	2710.34
437.46	2729.06
437.65	2656.51
437.84	2785.24
438.02	2768.85
438.21	2878.86
438.40	2700.98
438.58	2885.88
438.77	2876.52
438.96	2878.86
439.14	2972.48
439.33	2960.78
439.52	3026.31
439.70	2967.80
439.89	3068.44
440.08	3070.78
440.26	2963.12
440.45	2916.31
440.63	3059.08
440.82	3080.14
441.01	3119.93
441.19	3178.45
441.38	3173.77
441.57	3309.52
441.75	3255.69
441.94	3344.63
442.12	3389.10
442.31	3412.50
442.50	3187.81
442.68	3346.97
442.87	3321.22
443.05	3412.50
443.24	3351.65
443.43	3330.58
443.61	3375.05
443.80	3527.19
443.98	3358.67
444.17	3204.19
444.35	3475.70
444.54	3499.10
444.73	3456.97
444.91	3372.71
445.10	3421.86
445.28	3480.38
445.47	3435.91
445.65	3400.80
445.84	3449.95
446.02	3534.21
446.21	3534.21
446.39	3456.97
446.58	3506.12
446.77	3449.95
446.95	3426.54
447.14	3534.21
447.32	3499.10
447.51	3466.33
447.69	3466.33
447.88	3578.68
448.06	3515.48
448.25	3730.81
448.43	3501.44
448.62	3520.17
448.80	3482.72
448.99	3550.59
449.17	3665.28
449.36	3557.61
449.54	3674.64
449.73	3761.24
449.91	3653.58
450.10	3581.02
450.28	3815.07
450.46	3655.92
450.65	3779.97
450.83	3733.15
451.02	3623.15
451.20	3822.09
451.39	3817.41
451.57	3611.45
451.76	3728.47
451.94	3866.56
452.13	3847.84
452.31	3817.41
452.49	3786.99
452.68	3791.67
452.86	3922.74
453.05	3861.88
453.23	3978.91
453.42	3943.80
453.60	3791.67
453.78	3880.61
453.97	3885.29
454.15	3906.35
454.34	3887.63
454.52	4004.66
454.70	3885.29
454.89	3957.85
455.07	3866.56
455.26	4079.55
455.44	4124.02
455.62	4138.07
455.81	4121.68
455.99	4109.98
456.17	4135.73
456.36	4248.07
456.54	4257.43
456.73	4156.79
456.91	4238.71
457.09	4339.35
457.28	4465.74
457.46	4248.07
457.64	4484.47
457.83	4301.90
458.01	4308.93
458.19	4477.44
458.38	4297.22
458.56	4416.59
458.74	4418.93
458.93	4411.91
459.11	4440.00
459.29	4528.94
459.48	4421.27
459.66	4367.44
459.84	4493.83
460.03	4725.54
460.21	4585.11
460.39	4578.09
460.57	4517.23
460.76	4610.86
460.94	4695.11
461.12	4458.72
461.31	4638.94
461.49	4615.54
461.67	4631.92
461.85	4627.24
462.04	4610.86
462.22	4821.50
462.40	4882.36
462.59	4924.49
462.77	4732.56
462.95	4901.08
463.13	4683.41
463.32	4919.81
463.50	4660.01
463.68	4894.06
463.86	4858.95
464.05	4828.53
464.23	4788.74
464.41	4983.00
464.59	4781.71
464.78	4896.40
464.96	4873.00
465.14	4875.34
465.32	4961.94
465.50	5128.11
465.69	5020.45
465.87	4945.55
466.05	5020.45
466.23	5036.83
466.41	5036.83
466.60	5149.18
466.78	4952.57
466.96	4947.89
467.14	5090.67
467.32	5233.44
467.51	5128.11
467.69	4947.89
467.87	5029.81
468.05	5139.82
468.23	5156.20
468.41	5041.51
468.60	5205.35
468.78	5137.48
468.96	5296.63
469.14	5198.33
469.32	5378.55
469.50	5303.65
469.69	5298.97
469.87	5397.28
470.05	5411.32
470.23	5369.19
470.41	5502.60
470.59	5373.87
470.77	5596.22
470.95	5507.28
471.14	5624.31
471.32	5359.83
471.50	5495.58
471.68	5570.48
471.86	5469.83
472.04	5572.82
472.22	5760.06
472.40	5582.18
472.58	5816.23
472.77	5734.31
472.95	5846.66
473.13	5785.80
473.31	5820.91
473.49	5753.04
473.67	5853.68
473.85	5944.96
474.03	5959.00
474.21	5989.43
474.39	6029.22
474.57	6157.95
474.75	6101.78
474.93	6349.87
475.12	6186.04
475.30	6303.06
475.48	6090.07
475.66	6260.93
475.84	6186.04
476.02	6317.11
476.20	6392.00
476.38	6429.45
476.56	6420.09
476.74	6686.91
476.92	6539.46
477.10	6443.49
477.28	6452.86
477.46	6574.56
477.64	6745.42
477.82	6747.76
478.00	6942.03
478.18	6937.35
478.36	6991.18
478.54	7138.63
478.72	7162.04
478.90	7059.06
479.08	7187.79
479.26	7143.32
479.44	7349.28
479.62	7297.79
479.80	7400.77
479.98	7360.98
480.16	7470.99
480.34	7564.61
480.52	7688.66
480.70	7735.47
480.88	7478.01
481.06	7751.85
481.24	7756.54
481.41	7520.14
481.59	7824.41
481.77	8053.78
481.95	7911.01
482.13	8042.08
482.31	8100.59
482.49	8189.53
482.67	8259.75
482.85	8489.12
483.03	8383.80
483.21	8690.41
483.39	8622.53
483.57	8493.80
483.74	8505.51
483.92	8704.45
484.10	8650.62
484.28	8959.57
484.46	9104.68
484.64	9076.60
484.82	9027.45
485.00	9074.26
485.18	9352.78
485.35	9472.15
485.53	9483.85
485.71	9448.74
485.89	9664.07
486.07	9418.32
486.25	9626.62
486.43	9699.18
486.61	9753.01
486.78	9820.89
486.96	10059.62
487.14	9944.94
487.32	9989.41
487.50	10253.89
487.68	10148.56
487.85	10218.78
488.03	10389.64
488.21	10712.63
488.39	10857.75
488.57	10626.03
488.75	10820.30
488.92	10846.04
489.10	10892.85
489.28	11131.59
489.46	10890.51
489.64	11042.65
489.81	11302.45
489.99	11197.12
490.17	11243.93
490.35	11508.41
490.53	11700.34
490.70	11667.57
490.88	11389.05
491.06	11789.28
491.24	11929.71
491.41	11829.07
491.59	11927.37
491.77	11751.83
491.95	12095.89
492.13	12065.46
492.30	12255.04
492.48	12329.94
492.66	12320.58
492.84	12571.02
493.01	12540.59
493.19	12580.38
493.37	12931.46
493.54	12608.47
493.72	12835.50
493.90	12664.64
494.08	13013.38
494.25	13048.49
494.43	13092.96
494.61	13338.71
494.79	13263.82
494.96	13238.07
495.14	13259.13
495.32	13589.15
495.49	13556.38
495.67	13736.60
495.85	13926.19
496.02	13792.78
496.20	13935.55
496.38	14038.53
496.55	13799.80
496.73	14106.41
496.91	14183.65
497.09	14108.75
497.26	14359.19
497.44	14438.76
497.62	14469.19
497.79	14501.96
497.97	14380.25
498.14	14764.10
498.32	14752.40
498.50	14703.25
498.67	14941.98
498.85	14850.70
499.03	14806.23
499.20	14918.57
499.38	15000.49
499.56	15557.54
499.73	15194.76
499.91	15405.41
500.08	15667.55
500.26	15318.81
500.44	15410.09
500.61	15520.09
500.79	15573.92
500.97	15484.98
501.14	15946.07
501.32	15950.75
501.49	15859.47
501.67	15749.46
501.84	15793.94
502.02	15866.49
502.20	16049.05
502.37	16123.95
502.55	16107.57
502.72	16210.55
502.90	16187.14
503.07	16161.40
503.25	16425.88
503.43	16285.45
503.60	16524.18
503.78	16486.73
503.95	16603.76
504.13	16627.17
504.30	16676.32
504.48	16800.37
504.65	16760.58
504.83	16720.79
505.01	16936.12
505.18	16655.25
505.36	17128.04
505.53	16748.87
505.71	17125.70
505.88	17149.11
506.06	17104.64
506.23	17334.01
506.41	17373.80
506.58	17139.74
506.76	17209.96
506.93	17507.21
507.11	17207.62
507.28	17823.18
507.46	17668.70
507.63	17874.67
507.81	17998.72
507.98	17720.20
508.16	17830.20
508.33	18040.85
508.50	17666.36
508.68	18237.45
508.85	17895.74
509.03	18087.66
509.20	18038.51
509.38	18036.17
509.55	18181.28
509.73	18574.49
509.90	18464.49
510.08	18380.23
510.25	18258.52
510.42	18801.52
510.60	18853.02
510.77	18794.50
510.95	18595.56
511.12	18759.39
511.30	18857.70
511.47	18934.93
511.64	18876.42
511.82	18710.24
511.99	19239.20
512.17	19449.85
512.34	18904.51
512.51	19073.03
512.69	19147.92
512.86	19222.82
513.04	19527.09
513.21	19571.56
513.38	19463.90
513.56	19501.34
513.73	19356.23
513.90	19772.85
514.08	19499.00
514.25	19573.90
514.43	19630.07
514.60	19967.11
514.77	20046.69
514.95	20039.67
515.12	19749.44
515.29	19922.64
515.47	20205.84
515.64	20140.31
515.81	20163.72
515.99	20308.83
516.16	20257.34
516.33	20617.78
516.51	20554.58
516.68	20194.14
516.85	20517.14
517.03	20620.12
517.20	20439.90
517.37	20533.52
517.54	20538.20
517.72	20971.20
517.89	20900.98
518.06	20868.22
518.24	20589.69
518.41	20561.61
518.58	20823.75
518.75	20697.36
518.93	21078.86
519.10	20943.11
519.27	21043.76
519.45	20889.28
519.62	21172.49
519.79	21032.05
519.96	20870.56
520.14	21329.30
520.31	21116.31
520.48	21333.98
520.65	21022.69
520.83	21308.24
521.00	21172.49
521.17	21338.66
521.34	21544.63
521.52	21488.46
521.69	21315.26
521.86	21891.03
522.03	21958.91
522.20	21888.69
522.38	21984.65
522.55	21781.03
522.72	21699.11
522.89	21830.18
523.07	22087.64
523.24	21923.80
523.41	22291.26
523.58	22305.31
523.75	22391.91
523.92	21750.60
524.10	22422.33
524.27	22391.91
524.44	22658.73
524.61	22775.75
524.78	22384.88
524.96	22478.50
525.13	22752.35
525.30	22293.60
525.47	22663.41
525.64	22569.79
525.81	22630.64
525.98	22806.18
526.16	22806.18
526.33	22499.57
526.50	23115.13
526.67	22785.12
526.84	22780.43
527.01	22810.86
527.18	22916.19
527.36	23019.17
527.53	23105.77
527.70	23440.47
527.87	23508.34
528.04	23297.69
528.21	23014.49
528.38	23227.48
528.55	23159.60
528.72	23616.01
528.89	23353.87
529.07	23573.88
529.24	23569.19
529.41	23669.84
529.58	23433.44
529.75	23171.30
529.92	23276.63
530.09	23473.23
530.26	23552.81
530.43	23908.57
530.60	23852.40
530.77	23756.44
530.94	23536.43
531.11	23805.59
531.28	23791.55
531.46	23566.85
531.63	23819.63
531.80	24053.69
531.97	24130.92
532.14	24180.07
532.31	24168.37
532.48	24379.02
532.65	24369.66
532.82	23847.72
532.99	24147.31
533.16	24084.11
533.33	24606.05
533.50	24599.03
533.67	24280.72
533.84	24109.86
534.01	24257.31
534.18	24467.96
534.35	24173.05
534.52	24699.67
534.69	24566.26
534.86	24907.98
535.03	24554.56
535.20	24718.40
535.37	24758.19
535.54	24868.19
535.71	24893.94
535.88	24519.45
536.05	24751.17
536.22	24664.57
536.38	24613.07
536.55	24936.07
536.72	25144.38
536.89	24978.20
537.06	24966.49
537.23	24856.49
537.40	25252.04
537.57	24879.89
537.74	25455.67
537.91	25525.88
538.08	25425.24
538.25	25270.76
538.42	25579.71
538.59	25359.70
538.75	25216.93
538.92	25198.21
539.09	25418.22
539.26	25448.64
539.43	25467.37
539.60	25701.42
539.77	25579.71
539.94	25708.44
540.11	25757.60
540.28	25378.43
540.44	25448.64
540.61	25532.90
540.78	25642.91
540.95	25727.17
541.12	25766.96
541.29	25996.33
541.46	25661.63
541.62	25612.48
541.79	25790.36
541.96	25701.42
542.13	25898.03
542.30	25867.60
542.47	26162.51
542.63	26394.22
542.80	26387.20
542.97	26616.57
543.14	26558.06
543.31	26270.17
543.48	26155.49
543.64	26471.46
543.81	26684.45
543.98	26431.67
544.15	26267.83
544.32	26710.19
544.48	26677.43
544.65	26745.30
544.82	26745.30
544.99	26316.98
545.16	26382.52
545.32	26654.02
545.49	26738.28
545.66	26775.73
545.83	27061.27
546.00	27274.26
546.16	26588.49
546.33	26459.76
546.50	26389.54
546.67	27044.89
546.83	26548.70
547.00	27220.43
547.17	26937.23
547.34	26902.12
547.50	27480.23
547.67	27182.98
547.84	26962.97
548.00	27206.39
548.17	27337.46
548.34	27318.73
548.51	27566.83
548.67	27393.63
548.84	27578.53
549.01	27257.88
549.18	27213.41
549.34	27190.00
549.51	27505.98
549.68	27328.10
549.84	27297.67
550.01	27379.59
550.18	27381.93
550.34	27475.55
550.51	27323.41
550.68	27360.86
550.84	27463.85
551.01	27681.52
551.18	27613.64
551.34	27295.33
551.51	27765.78
551.68	27470.87
551.84	27667.47
552.01	27742.37
552.18	28151.96
552.34	27615.98
552.51	27997.49
552.68	27461.51
552.84	28264.31
553.01	27730.67
553.18	27763.43
553.34	27901.53
553.51	27840.67
553.67	27676.83
553.84	28102.81
554.01	28566.24
554.17	27974.08
554.34	27988.13
554.51	28313.46
554.67	28334.53
554.84	27859.40
555.00	27889.82
555.17	28224.52
555.33	28456.23
555.50	27786.84
555.67	28177.71
555.83	28196.43
556.00	28250.27
556.16	28704.33
556.33	28304.10
556.50	28376.66
556.66	28659.86
556.83	28430.49
556.99	28505.38
557.16	28704.33
557.32	28589.64
557.49	28940.72
557.65	28620.07
557.82	28652.84
557.98	27988.13
558.15	28641.14
558.32	28599.01
558.48	28521.77
558.65	28709.01
558.81	28854.12
558.98	28617.73
559.14	28409.42
559.31	28741.78
559.47	28498.36
559.64	28655.18
559.80	28767.52
559.97	28849.44
560.13	28425.81
560.30	28811.99
560.46	28697.31
560.63	28486.66
560.79	29010.94
560.96	28940.72
561.12	28863.49
561.29	28940.72
561.45	28811.99
561.61	29153.71
561.78	28884.55
561.94	29244.99
562.11	29036.69
562.27	29125.63
562.44	29195.84
562.60	29144.35
562.77	28631.77
562.93	29029.66
563.10	29083.50
563.26	28762.84
563.42	29598.41
563.59	29001.58
563.75	29125.63
563.92	29509.47
564.08	29207.55
564.24	29153.71
564.41	29053.07
564.57	29001.58
564.74	29069.45
564.90	29144.35
565.07	29008.60
565.23	29509.47
565.39	29226.27
565.56	29242.65
565.72	29008.60
565.88	28903.28
566.05	28989.88
566.21	29113.92
566.38	29235.63
566.54	29455.64
566.70	29497.77
566.87	29467.34
567.03	29301.17
567.19	29556.28
567.36	29298.83
567.52	29277.76
567.68	29535.22
567.85	29373.72
568.01	29331.59
568.17	29528.20
568.34	29668.63
568.50	29731.83
568.66	29399.47
568.83	29647.57
568.99	29181.80
569.15	29261.38
569.32	29331.59
569.48	29308.19
569.64	29413.51
569.81	29420.53
569.97	29472.03
570.13	29549.26
570.30	29280.10
570.46	29696.72
570.62	29380.74
570.78	29563.31
570.95	29214.57
571.11	29575.01
571.27	29235.63
571.43	29436.92
571.60	29546.92
571.76	29694.38
571.92	29427.56
572.09	29493.09
572.25	29792.68
572.41	29972.90
572.57	29635.86
572.74	29441.60
572.90	29575.01
573.06	29919.07
573.22	29820.77
573.38	29738.85
573.55	29467.34
573.71	29977.58
573.87	30164.82
574.03	29369.04
574.20	29532.88
574.36	29795.02
574.52	29549.26
574.68	29788.00
574.84	29984.60
575.01	29881.62
575.17	29706.08
575.33	29532.88
575.49	29584.37
575.65	29610.12
575.82	29916.73
575.98	29668.63
576.14	29799.70
576.30	29860.55
576.46	29420.53
576.62	29661.61
576.79	29528.20
576.95	29736.51
577.11	29858.21
577.27	29722.46
577.43	29970.56
577.59	29837.15
577.75	29806.72
577.92	29670.97
578.08	29689.70
578.24	29287.12
578.40	29575.01
578.56	30125.04
578.72	29879.28
578.88	29867.58
579.04	29806.72
579.21	30075.88
579.37	29687.36
579.53	29890.98
579.69	29619.48
579.85	29717.78
580.01	29532.88
580.17	29612.46
580.33	29717.78
580.49	29991.62
580.65	29687.36
580.82	29975.24
580.98	29954.18
581.14	30059.50
581.30	29834.81
581.46	29797.36
581.62	30064.18
581.78	29631.18
581.94	29670.97
582.10	29975.24
582.26	30050.14
582.42	30244.40
582.58	30143.76
582.74	30129.72
582.90	30132.06
583.06	30061.84
583.22	29680.33
583.38	30125.04
583.54	29895.66
583.70	30251.42
583.86	29989.28
584.02	29656.93
584.18	30328.66
584.34	29879.28
584.50	30305.26
584.66	30155.46
584.82	29816.08
584.98	30082.91
585.14	29795.02
585.30	29523.52
585.46	29860.55
585.62	29844.17
585.78	29759.91
585.94	29221.59
586.10	30260.79
586.26	29893.32
586.42	30213.98
586.58	29982.26
586.74	29635.86
586.90	30022.05
587.06	29727.14
587.22	29752.89
587.38	29846.51
587.54	30022.05
587.70	30101.63
587.86	29788.00
588.02	30293.55
588.18	30249.08
588.34	30288.87
588.49	30309.94
588.65	29834.81
588.81	29841.83
588.97	29832.47
589.13	30405.90
589.29	30113.33
589.45	30045.46
589.61	30377.81
589.77	30312.28
589.93	30338.02
590.08	30445.69
590.24	30480.80
590.40	30277.17
590.56	30527.61
590.72	30228.02
590.88	30068.86
591.04	30345.05
591.20	30658.68
591.35	30464.41
591.51	30534.63
591.67	30787.41
591.83	30780.39
591.99	30441.01
592.15	30305.26
592.31	30181.21
592.46	30066.52
592.62	30089.93
592.78	30204.61
592.94	30192.91
593.10	30616.55
593.26	30904.43
593.41	30429.30
593.57	30370.79
593.73	30288.87
593.89	30443.35
594.05	30251.42
594.20	30539.31
594.36	30661.02
594.52	30448.03
594.68	30377.81
594.84	30211.64
594.99	30415.26
595.15	30312.28
595.31	30405.90
595.47	30890.39
595.62	30696.13
595.78	30211.64
595.94	30244.40
596.10	30705.49
596.25	30150.78
596.41	30096.95
596.57	30213.98
596.73	30553.35
596.88	30548.67
597.04	30644.63
597.20	30562.72
597.36	30747.62
597.51	30499.52
597.67	30623.57
597.83	30412.92
597.99	30684.42
598.14	30279.51
598.30	30639.95
598.46	30352.07
598.61	30340.36
598.77	30756.98
598.93	30501.86
599.09	30639.95
599.24	30876.35
599.40	30630.59
599.56	30874.01
599.71	30551.01
599.87	30618.89
600.03	30686.76
600.18	30764.00
600.34	30646.97
600.50	30642.29
600.65	30433.99
600.81	31101.04
600.97	31035.50
601.12	30712.51
601.28	31077.63
601.44	30567.40
601.59	30682.08
601.75	30513.56
601.91	30558.03
602.06	30167.16
602.22	30576.76
602.37	30628.25
602.53	30298.23
602.69	30663.36
602.84	30731.23
603.00	30852.94
603.16	30916.14
603.31	30724.21
603.47	30490.16
603.62	30532.29
603.78	30628.25
603.94	30457.39
604.09	30822.51
604.25	30459.73
604.40	30092.27
604.56	30745.28
604.71	30747.62
604.87	30813.15
605.03	30745.28
605.18	30869.33
605.34	30504.20
605.49	30464.41
605.65	30281.85
605.80	30096.95
605.96	30703.15
606.12	30426.96
606.27	30469.09
606.43	30670.38
606.58	30785.07
606.74	30394.20
606.89	30600.16
607.05	30473.78
607.20	30768.68
607.36	30508.88
607.51	30471.43
607.67	30572.08
607.82	30272.49
607.98	30148.44
608.13	30443.35
608.29	30256.11
608.44	30398.88
608.60	30352.07
608.75	30735.92
608.91	30291.21
609.06	30469.09
609.22	30433.99
609.37	30230.36
609.53	30134.40
609.68	30192.91
609.84	30204.61
609.99	30401.22
610.15	30232.70
610.30	29996.31
610.46	29898.00
610.61	30515.90
610.76	30548.67
610.92	30373.13
611.07	30232.70
611.23	30279.51
611.38	30279.51
611.54	29961.20
611.69	30183.55
611.84	30441.01
612.00	30181.21
612.15	29984.60
612.31	30221.00
612.46	30125.04
612.62	30178.87
612.77	30398.88
612.92	30391.86
613.08	30033.75
613.23	30375.47
613.39	29759.91
613.54	29867.58
613.69	29745.87
613.85	29998.65
614.00	29944.81
614.15	30012.69
614.31	29827.79
614.46	29640.54
614.62	29982.26
614.77	29921.41
614.92	30305.26
615.08	29692.04
615.23	29998.65
615.38	30080.56
615.54	30132.06
615.69	29972.90
615.84	29741.19
616.00	29993.97
616.15	29867.58
616.30	29876.94
616.46	29886.30
616.61	29715.44
616.76	30106.31
616.92	29624.16
617.07	29881.62
617.22	29736.51
617.37	29923.75
617.53	29905.02
617.68	29708.42
617.83	29528.20
617.99	29488.41
618.14	29682.67
618.29	29865.24
618.45	29530.54
618.60	29462.66
618.75	29745.87
618.90	29546.92
619.06	29689.70
619.21	29394.79
619.36	29773.95
619.51	29570.33
619.67	29127.97
619.82	29207.55
619.97	29642.88
620.12	29329.25
620.28	29071.79
620.43	29724.80
620.58	29663.95
620.73	29331.59
620.89	29509.47
621.04	29614.80
621.19	29591.39
621.34	29598.41
621.49	29013.28
621.65	29130.31
621.80	29338.62
621.95	28989.88
622.10	29024.98
622.25	28971.15
622.41	29336.27
622.56	29095.20
622.71	29252.02
622.86	28985.19
623.01	29041.37
623.16	29104.56
623.32	28980.51
623.47	29158.39
623.62	28943.06
623.77	28905.62
623.92	29247.33
624.07	28994.56
624.23	29020.30
624.38	29380.74
624.53	28961.79
624.68	29394.79
624.83	29095.20
624.98	29380.74
625.13	28914.98
625.29	28819.02
625.44	29022.64
625.59	28769.86
625.74	28790.93
625.89	28575.60
626.04	28432.83
626.19	28776.89
626.34	28828.38
626.49	28496.02
626.65	28615.39
626.80	28821.36
626.95	28676.24
627.10	28961.79
627.25	28547.51
627.40	28430.49
627.55	28346.23
627.70	28128.56
627.85	28631.77
628.00	28388.36
628.15	28486.66
628.30	28088.77
628.45	28301.76
628.60	28744.12
628.76	28709.01
628.91	28500.70
629.06	28477.30
629.21	28594.32
629.36	28500.70
629.51	28416.44
629.66	28400.06
629.81	28229.20
629.96	28435.17
630.11	27978.76
630.26	28006.85
630.41	28226.86
630.56	28320.48
630.71	28154.30
630.86	28425.81
631.01	28428.15
631.16	28343.89
631.31	28465.60
631.46	28194.09
631.61	27990.47
631.76	28163.67
631.91	27861.74
632.06	27948.34
632.21	27735.35
632.36	27768.12
632.51	28032.60
632.66	27861.74
632.81	27910.89
632.96	27623.00
633.10	27943.66
633.25	27948.34
633.40	27962.38
633.55	28177.71
633.70	28032.60
633.85	27885.14
634.00	28030.26
634.15	27618.32
634.30	27625.34
634.45	27866.42
634.60	27840.67
634.75	27889.82
634.90	27599.60
635.05	27943.66
635.19	27742.37
635.34	27702.58
635.49	27978.76
635.64	27920.25
635.79	27733.01
635.94	27634.71
636.09	27550.45
636.24	27442.78
636.39	27342.14
636.53	27395.97
636.68	27133.83
636.83	27819.61
636.98	27754.07
637.13	27606.62
637.28	27531.72
637.43	27613.64
637.57	27456.82
637.72	27236.81
637.87	27239.15
638.02	27414.69
638.17	27599.60
638.32	27428.74
638.46	27248.52
638.61	27248.52
638.76	27028.51
638.91	27447.46
639.06	27271.92
639.20	27190.00
639.35	27400.65
639.50	27377.25
639.65	27517.68
639.80	27676.83
639.94	27084.68
640.09	26888.07
640.24	27353.84
640.39	27051.91
640.54	26888.07
640.68	26761.69
640.83	26995.74
640.98	26803.82
641.13	27009.78
641.27	27199.37
641.42	27143.19
641.57	26918.50
641.72	27332.78
641.86	26867.01
642.01	26703.17
642.16	26911.48
642.31	26410.60
642.45	26850.63
642.60	26424.65
642.75	26693.81
642.90	27005.10
643.04	26501.89
643.19	26794.45
643.34	26878.71
643.48	26761.69
643.63	26913.82
643.78	26892.76
643.93	26714.87
644.07	26677.43
644.22	26752.32
644.37	26707.85
644.51	26665.72
644.66	26576.78
644.81	26625.93
644.95	26415.29
645.10	26565.08
645.25	26675.09
645.39	26368.48
645.54	26544.02
645.69	26356.77
645.83	26555.72
645.98	25979.95
646.13	26305.28
646.27	26972.33
646.42	26384.86
646.57	26417.63
646.71	26485.50
646.86	26125.06
647.00	26480.82
647.15	26398.90
647.30	26417.63
647.44	26331.03
647.59	26426.99
647.74	26251.45
647.88	26052.50
648.03	26202.30
648.17	26183.57
648.32	26366.13
648.47	26483.16
648.61	26391.88
648.76	26558.06
648.90	26382.52
649.05	26019.74
649.20	26335.71
649.34	25888.67
649.49	25919.09
649.63	26101.65
649.78	26384.86
649.92	25998.67
650.07	25947.18
650.21	26132.08
650.36	26150.81
650.51	26038.46
650.65	26457.42
650.80	26047.82
650.94	26101.65
651.09	25965.90
651.23	25881.64
651.38	25972.92
651.52	25675.68
651.67	25865.26
651.81	25998.67
651.96	25827.81
652.10	25511.84
652.25	25699.08
652.39	26267.83
652.54	25851.22
652.68	25769.30
652.83	25575.03
652.97	26192.94
653.12	25855.90
653.26	25612.48
653.41	25439.28
653.55	26024.42
653.70	25881.64
653.84	25621.84
653.99	25558.65
654.13	25614.82
654.27	25504.82
654.42	25322.26
654.56	25443.96
654.71	25392.47
654.85	25399.49
655.00	25848.88
655.14	25568.01
655.29	25458.01
655.43	25514.18
655.57	25312.89
655.72	25174.80
655.86	25469.71
656.01	25408.86
656.15	25502.48
656.30	25413.54
656.44	25219.27
656.58	24840.11
656.73	25193.53
656.87	24945.43
657.01	25106.93
657.16	25319.92
657.30	25357.36
657.45	25240.34
657.59	25259.06
657.73	24692.65
657.88	25291.83
658.02	24837.76
658.16	25333.96
658.31	24961.81
658.45	24940.75
658.60	24854.15
658.74	24943.09
658.88	24765.21
659.03	24837.76
659.17	24716.06
659.31	25202.89
659.46	25090.54
659.60	24821.38
659.74	24907.98
659.89	24975.86
660.03	24781.59
660.17	24812.02
660.32	24379.02
660.46	24678.61
660.60	24369.66
660.74	24332.21
660.89	24659.88
661.03	24212.84
661.17	24673.93
661.32	24439.87
661.46	24868.19
661.60	24439.87
661.74	24606.05
661.89	24711.38
662.03	24407.11
662.17	24346.25
662.31	24339.23
662.46	24610.73
662.60	23854.74
662.74	24381.36
662.88	24257.31
663.03	23838.36
663.17	23903.89
663.31	23908.57
663.45	24159.01
663.60	23765.80
663.74	23557.49
663.88	23765.80
664.02	24130.92
664.17	23910.91
664.31	23459.19
664.45	23695.58
664.59	23782.18
664.73	23733.03
664.88	23824.31
665.02	23749.42
665.16	23686.22
665.30	23864.10
665.44	23728.35
665.59	23290.67
665.73	23569.19
665.87	23321.10
666.01	23330.46
666.15	23363.23
666.29	23681.54
666.44	23316.42
666.58	22874.06
666.72	23309.40
666.86	23335.14
667.00	23803.25
667.14	23580.90
667.28	23161.94
667.43	23063.64
667.57	23281.31
667.71	22946.61
667.85	22895.12
667.99	22918.53
668.13	22679.79
668.27	22771.07
668.41	22799.16
668.56	22815.54
668.70	23122.15
668.84	23115.13
668.98	22869.37
669.12	22656.39
669.26	22607.23
669.40	22782.77
669.54	22946.61
669.68	22712.56
669.82	22541.70
669.96	22712.56
670.10	22167.21
670.25	22464.46
670.39	22164.87
670.53	22277.22
670.67	21968.27
670.81	22291.26
670.95	22860.01
671.09	22115.72
671.23	21884.01
671.37	22464.46
671.51	22314.67
671.65	22331.05
671.79	22146.15
671.93	21855.92
672.07	21972.95
672.21	22019.76
672.35	21757.62
672.49	21546.97
672.63	21593.78
672.77	21701.45
672.91	22043.17
673.05	21893.37
673.19	21497.82
673.33	21811.45
673.47	21654.64
673.61	21731.87
673.75	21514.20
673.89	21516.54
674.03	21542.29
674.17	21490.80
674.31	21418.24
674.45	21315.26
674.59	21341.00
674.73	21266.11
674.87	21139.72
675.01	21008.65
675.15	21228.66
675.29	21099.93
675.43	20973.54
675.56	20915.03
675.70	21172.49
675.84	20950.14
675.98	20397.77
676.12	20900.98
676.26	20877.58
676.40	21034.39
676.54	20711.40
676.68	20585.01
676.82	20381.38
676.96	20573.31
677.10	20341.60
677.23	20287.76
677.37	20210.53
677.51	20365.00
677.65	20046.69
677.79	19955.41
677.93	20205.84
678.07	19892.21
678.21	19847.74
678.34	19922.64
678.48	19805.61
678.62	19592.62
678.76	19506.02
678.90	19770.51
679.04	19932.00
679.18	19627.73
679.31	19407.72
679.45	19407.72
679.59	19185.37
679.73	19199.41
679.87	19374.95
680.00	19412.40
680.14	19136.22
680.28	18906.85
680.42	18993.45
680.56	18941.96
680.70	19087.07
680.83	18813.23
680.97	18878.76
681.11	18820.25
681.25	18389.59
681.39	18705.56
681.52	18906.85
681.66	18508.96
681.80	18380.23
681.94	18651.73
682.07	18260.86
682.21	18363.84
682.35	18214.05
682.49	18281.92
682.62	18164.90
682.76	18359.16
682.90	18045.53
683.04	18075.96
683.17	18108.72
683.31	18052.55
683.45	18242.14
683.59	18040.85
683.72	17633.60
683.86	17947.23
684.00	17577.42
684.13	17418.27
684.27	17518.91
684.41	17516.57
684.55	17664.02
684.68	17170.17
684.82	17371.46
684.96	17352.73
685.09	16779.30
685.23	17123.36
685.37	17046.12
685.50	17198.26
685.64	17116.34
685.78	16980.59
685.91	17345.71
686.05	17132.72
686.19	17067.19
686.32	16858.88
686.46	16816.75
686.60	16456.31
686.73	16629.51
686.87	16561.63
687.01	16697.38
687.14	16760.58
687.28	16313.53
687.42	16173.10
687.55	16053.73
687.69	16517.16
687.82	16119.27
687.96	16081.82
688.10	16032.67
688.23	15775.21
688.37	16023.31
688.50	16063.10
688.64	15866.49
688.78	15693.29
688.91	15702.65
689.05	15803.30
689.18	15674.57
689.32	15154.97
689.46	15351.57
689.59	15297.74
689.73	15307.10
689.86	15328.17
690.00	15215.82
690.13	15225.18
690.27	15374.98
690.41	15073.05
690.54	15150.29
690.68	15068.37
690.81	14941.98
690.95	14956.02
691.08	15222.84
691.22	14951.34
691.35	14839.00
691.49	14902.19
691.62	14785.16
691.76	14808.57
691.89	14527.71
692.03	14396.64
692.16	14626.01
692.30	14319.40
692.43	14272.59
692.57	14478.55
692.70	14160.24
692.84	14230.46
692.97	14207.05
693.11	14185.99
693.24	14106.41
693.38	14064.28
693.51	13994.06
693.65	13961.30
693.78	13722.56
693.92	13846.61
694.05	13855.97
694.19	13942.57
694.32	13837.25
694.45	13364.46
694.59	13277.86
694.72	13289.56
694.86	13156.15
694.99	13144.45
695.13	13289.56
695.26	13235.73
695.39	13172.54
695.53	13357.44
695.66	13256.79
695.80	12994.65
695.93	13032.10
696.07	12908.05
696.20	13327.01
696.33	13022.74
696.47	12739.54
696.60	12781.67
696.73	12629.53
696.87	12606.13
697.00	12645.91
697.14	12456.33
697.27	12439.95
697.40	12311.22
697.54	12512.50
697.67	12212.92
697.80	12299.52
697.94	12093.55
698.07	11915.67
698.21	12023.33
698.34	12159.08
698.47	12210.57
698.61	12152.06
698.74	12072.48
698.87	11960.14
699.01	11815.02
699.14	11793.96
699.27	11838.43
699.40	11761.19
699.54	11976.52
699.67	11529.48
699.80	11534.16
699.94	11702.68
700.07	11466.28
700.20	11274.36
700.34	11239.25
700.47	11213.51
700.60	11475.65
700.73	11377.34
700.87	11318.83
701.00	11262.66
701.13	10960.73
701.26	11126.91
701.40	11140.95
701.53	11208.83
701.66	11112.86
701.79	10714.97
701.93	10991.16
702.06	10934.98
702.19	10810.93
702.32	10862.43
702.46	10707.95
702.59	10565.18
702.72	10609.65
702.85	10492.62
702.99	10293.68
703.12	10401.34
703.25	10438.79
703.38	10143.88
703.51	10289.00
703.65	10265.59
703.78	10270.27
703.91	10169.63
704.04	10270.27
704.17	9982.38
704.31	10207.08
704.44	10010.47
704.57	10150.90
704.70	9942.60
704.83	9607.90
704.96	9909.83
705.10	9530.66
705.23	9586.83
>>>>>End Processed Spectral Data<<<<<
