SpectraSuite Data File
++++++++++++++++++++++++++++++++++++
Date: Fri Oct 18 13:57:55 GMT-05:00 2013
User: bianchi
Dark Spectrum Present: No
Reference Spectrum Present: No
Number of Sampled Component Spectra: 1
Spectrometers: USB2+H05261
Integration Time (usec): 50000 (USB2+H05261)
Spectra Averaged: 1 (USB2+H05261)
Boxcar Smoothing: 0 (USB2+H05261)
Correct for Electrical Dark: No (USB2+H05261)
Strobe/Lamp Enabled: No (USB2+H05261)
Correct for Detector Non-linearity: No (USB2+H05261)
Correct for Stray Light: No (USB2+H05261)
Number of Pixels in Processed Spectrum: 2048
>>>>>Begin Processed Spectral Data<<<<<
365.73	0.00
365.92	0.00
366.12	0.00
366.32	0.00
366.52	0.00
366.72	0.00
366.91	0.00
367.11	0.00
367.31	0.00
367.51	0.00
367.70	0.00
367.90	0.00
368.10	0.00
368.30	0.00
368.49	0.00
368.69	0.00
368.89	0.00
369.09	0.00
369.28	0.00
369.48	0.00
369.68	0.00
369.87	0.00
370.07	0.00
370.27	0.00
370.47	0.00
370.66	67.88
370.86	121.71
371.06	126.39
371.25	215.33
371.45	102.98
371.65	182.56
371.84	147.45
372.04	142.77
372.24	152.13
372.44	163.84
372.63	152.13
372.83	250.44
373.03	231.71
373.22	170.86
373.42	322.99
373.62	170.86
373.81	184.90
374.01	311.29
374.21	208.31
374.40	231.71
374.60	264.48
374.79	304.27
374.99	301.93
375.19	269.16
375.38	283.20
375.58	287.89
375.78	231.71
375.97	234.05
376.17	306.61
376.37	220.01
376.56	280.86
376.76	257.46
376.95	231.71
377.15	227.03
377.35	243.42
377.54	220.01
377.74	280.86
377.93	271.50
378.13	339.38
378.33	374.49
378.52	292.57
378.72	322.99
378.91	313.63
379.11	292.57
379.31	304.27
379.50	271.50
379.70	311.29
379.89	259.80
380.09	339.38
380.28	280.86
380.48	327.68
380.68	337.04
380.87	276.18
381.07	304.27
381.26	360.44
381.46	365.12
381.65	332.36
381.85	355.76
382.04	339.38
382.24	383.85
382.43	346.40
382.63	379.17
382.83	393.21
383.02	367.46
383.22	425.98
383.41	280.86
383.61	325.33
383.80	411.93
384.00	493.85
384.19	409.59
384.39	348.74
384.58	393.21
384.78	360.44
384.97	451.72
385.17	374.49
385.36	341.72
385.56	348.74
385.75	468.11
385.95	376.83
386.14	451.72
386.34	435.34
386.53	465.77
386.72	407.25
386.92	484.49
387.11	442.36
387.31	491.51
387.50	458.74
387.70	440.02
387.89	430.66
388.09	454.06
388.28	362.78
388.48	407.25
388.67	440.02
388.86	402.57
389.06	414.27
389.25	465.77
389.45	505.56
389.64	526.62
389.84	489.17
390.03	552.37
390.22	564.07
390.42	573.43
390.61	493.85
390.81	582.79
391.00	533.64
391.19	482.15
391.39	456.40
391.58	514.92
391.78	585.13
391.97	489.17
392.16	505.56
392.36	587.47
392.55	606.20
392.75	585.13
392.94	564.07
393.13	571.09
393.33	601.52
393.52	575.77
393.71	578.11
393.91	624.92
394.10	543.00
394.29	564.07
394.49	552.37
394.68	650.67
394.88	664.71
395.07	664.71
395.26	599.18
395.46	688.12
395.65	718.54
395.84	624.92
396.04	662.37
396.23	713.86
396.42	685.78
396.62	655.35
396.81	681.10
397.00	631.94
397.19	702.16
397.39	638.97
397.58	662.37
397.77	699.82
397.97	681.10
398.16	812.17
398.35	683.44
398.55	664.71
398.74	690.46
398.93	734.93
399.12	763.01
399.32	763.01
399.51	802.80
399.70	763.01
399.90	725.57
400.09	816.85
400.28	840.25
400.47	791.10
400.67	814.51
400.86	788.76
401.05	760.67
401.24	821.53
401.44	861.32
401.63	880.04
401.82	847.27
402.01	821.53
402.21	866.00
402.40	870.68
402.59	833.23
402.78	873.02
402.97	842.59
403.17	849.61
403.36	903.45
403.55	891.74
403.74	976.00
403.93	908.13
404.13	959.62
404.32	898.77
404.51	980.68
404.70	1001.75
404.89	926.85
405.09	910.47
405.28	1015.79
405.47	959.62
405.66	1095.37
405.85	1025.15
406.05	961.96
406.24	936.21
406.43	1018.13
406.62	994.73
406.81	1111.75
407.00	968.98
407.20	1048.56
407.39	1034.52
407.58	1090.69
407.77	1121.12
407.96	1032.18
408.15	1130.48
408.34	1109.41
408.54	1095.37
408.73	1177.29
408.92	1095.37
409.11	1181.97
409.30	1146.86
409.49	1238.14
409.68	1118.78
409.87	1156.22
410.07	1130.48
410.26	1172.61
410.45	1170.27
410.64	1158.57
410.83	1233.46
411.02	1270.91
411.21	1261.55
411.40	1224.10
411.59	1334.11
411.78	1259.21
411.98	1254.53
412.17	1359.85
412.36	1341.13
412.55	1425.39
412.74	1446.45
412.93	1474.54
413.12	1394.96
413.31	1462.83
413.50	1406.66
413.69	1411.34
413.88	1540.07
414.07	1542.41
414.26	1479.22
414.45	1490.92
414.64	1502.62
414.83	1654.76
415.02	1621.99
415.22	1565.82
415.41	1490.92
415.60	1530.71
415.79	1568.16
415.98	1636.03
416.17	1671.14
416.36	1643.06
416.55	1687.53
416.74	1722.63
416.93	1614.97
417.12	1736.68
417.31	1708.59
417.50	1783.49
417.69	1877.11
417.88	1804.55
418.07	1750.72
418.26	1795.19
418.45	1839.66
418.64	1823.28
418.83	1764.76
419.02	1956.69
419.21	1813.92
419.39	1816.26
419.58	1849.02
419.77	1865.41
419.96	1963.71
420.15	1909.88
420.34	1884.13
420.53	1881.79
420.72	1980.09
420.91	1886.47
421.10	1926.26
421.29	2059.67
421.48	1916.90
421.67	2029.24
421.86	2059.67
422.05	1984.77
422.24	2001.16
422.43	1994.14
422.61	1937.96
422.80	2050.31
422.99	2085.42
423.18	2200.10
423.37	2246.91
423.56	2052.65
423.75	2090.10
423.94	1989.46
424.13	1991.80
424.32	1949.67
424.50	2033.93
424.69	2115.84
424.88	2176.70
425.07	2120.53
425.26	2071.37
425.45	1956.69
425.64	2064.35
425.83	2134.57
426.01	2134.57
426.20	2097.12
426.39	2143.93
426.58	2108.82
426.77	2104.14
426.96	2036.27
427.15	2197.76
427.33	2150.95
427.52	2057.33
427.71	2275.00
427.90	2223.51
428.09	2244.57
428.28	2291.38
428.46	2246.91
428.65	2326.49
428.84	2314.79
429.03	2363.94
429.22	2279.68
429.40	2331.17
429.59	2326.49
429.78	2305.43
429.97	2228.19
430.16	2352.24
430.34	2324.15
430.53	2286.70
430.72	2417.77
430.91	2326.49
431.10	2356.92
431.28	2471.61
431.47	2473.95
431.66	2401.39
431.85	2445.86
432.03	2490.33
432.22	2572.25
432.41	2579.27
432.60	2623.74
432.79	2410.75
432.97	2389.69
433.16	2597.99
433.35	2471.61
433.54	2665.87
433.72	2558.21
433.91	2548.84
434.10	2520.76
434.28	2492.67
434.47	2583.95
434.66	2548.84
434.85	2588.63
435.03	2630.76
435.22	2672.89
435.41	2731.41
435.59	2759.49
435.78	2787.58
435.97	2719.70
436.16	2719.70
436.34	2661.19
436.53	2729.06
436.72	2846.09
436.90	2703.32
437.09	2864.82
437.28	2724.38
437.46	2860.13
437.65	2806.30
437.84	2846.09
438.02	2754.81
438.21	2925.67
438.40	2794.60
438.58	2995.89
438.77	2977.16
438.96	2988.86
439.14	3054.40
439.33	2923.33
439.52	3007.59
439.70	3126.96
439.89	2953.76
440.08	3019.29
440.26	3173.77
440.45	3164.40
440.63	3110.57
440.82	3098.87
441.01	3253.34
441.19	3206.53
441.38	3262.71
441.57	3169.09
441.75	3246.32
441.94	3349.31
442.12	3389.10
442.31	3377.39
442.50	3449.95
442.68	3389.10
442.87	3325.90
443.05	3302.50
443.24	3609.11
443.43	3524.85
443.61	3414.84
443.80	3576.34
443.98	3370.37
444.17	3389.10
444.35	3524.85
444.54	3557.61
444.73	3513.14
444.91	3508.46
445.10	3618.47
445.28	3468.67
445.47	3503.78
445.65	3452.29
445.84	3524.85
446.02	3471.01
446.21	3426.54
446.39	3377.39
446.58	3686.34
446.77	3606.77
446.95	3454.63
447.14	3611.45
447.32	3648.90
447.51	3569.32
447.69	3384.41
447.88	3569.32
448.06	3459.31
448.25	3543.57
448.43	3522.51
448.62	3630.17
448.80	3632.51
448.99	3613.79
449.17	3728.47
449.36	3735.50
449.54	3667.62
449.73	3784.65
449.91	3854.86
450.10	3768.26
450.28	3875.93
450.46	3854.86
450.65	3779.97
450.83	3899.33
451.02	3887.63
451.20	3896.99
451.39	3915.72
451.57	3850.18
451.76	3864.22
451.94	3826.78
452.13	3985.93
452.31	4032.74
452.49	3892.31
452.68	3936.78
452.86	3927.42
453.05	4119.34
453.23	3974.23
453.42	3978.91
453.60	3934.44
453.78	4044.45
453.97	4168.49
454.15	4126.36
454.34	3995.29
454.52	4070.19
454.70	4098.28
454.89	4091.26
455.07	4205.94
455.26	4219.99
455.44	4201.26
455.62	4189.56
455.81	4154.45
455.99	4276.16
456.17	4222.33
456.36	4182.54
456.54	4339.35
456.73	4339.35
456.91	4496.17
457.09	4440.00
457.28	4613.20
457.46	4348.72
457.64	4458.72
457.83	4437.66
458.01	4468.08
458.19	4547.66
458.38	4463.40
458.56	4573.41
458.74	4648.30
458.93	4507.87
459.11	4545.32
459.29	4585.11
459.48	4526.60
459.66	4620.22
459.84	4641.28
460.03	4711.50
460.21	4596.81
460.39	4568.73
460.57	4580.43
460.76	4566.39
460.94	4636.60
461.12	4688.09
461.31	4652.98
461.49	4842.57
461.67	4652.98
461.85	4873.00
462.04	4865.97
462.22	5069.60
462.40	4887.04
462.59	4802.78
462.77	4706.82
462.95	4765.33
463.13	4823.84
463.32	5071.94
463.50	4985.34
463.68	4910.44
463.86	4938.53
464.05	5011.09
464.23	4849.59
464.41	4994.70
464.59	5018.11
464.78	5184.29
464.96	5142.16
465.14	4917.47
465.32	4968.96
465.50	4997.04
465.69	5266.21
465.87	5146.84
466.05	5151.52
466.23	4931.51
466.41	5139.82
466.60	5233.44
466.78	5149.18
466.96	5071.94
467.14	5200.67
467.32	5158.54
467.51	5376.21
467.69	5186.63
467.87	5207.69
468.05	5235.78
468.23	5376.21
468.41	5310.68
468.60	5130.45
468.78	5430.04
468.96	5303.65
469.14	5582.18
469.32	5528.35
469.50	5355.15
469.69	5462.81
469.87	5481.53
470.05	5554.09
470.23	5479.19
470.41	5593.88
470.59	5666.44
470.77	5537.71
470.95	5558.77
471.14	5799.85
471.32	5640.69
471.50	5736.65
471.68	5893.47
471.86	5839.64
472.04	5767.08
472.22	5909.85
472.40	5834.96
472.58	5912.19
472.77	5895.81
472.95	6101.78
473.13	6120.50
473.31	5907.51
473.49	5921.56
473.67	5907.51
473.85	6190.72
474.03	6282.00
474.21	6171.99
474.39	6179.01
474.57	6272.64
474.75	6237.53
474.93	6420.09
475.12	6235.19
475.30	6424.77
475.48	6263.27
475.66	6162.63
475.84	6401.37
476.02	6459.88
476.20	6502.01
476.38	6626.06
476.56	6754.79
476.74	6656.48
476.92	6836.70
477.10	6682.23
477.28	6832.02
477.46	6815.64
477.64	6960.75
477.82	6780.53
478.00	7089.48
478.18	7213.53
478.36	7089.48
478.54	7283.75
478.72	7204.17
478.90	7297.79
479.08	7503.76
479.26	7372.69
479.44	7548.23
479.62	7583.34
479.80	7669.94
479.98	7571.63
480.16	7618.44
480.34	7672.28
480.52	7805.69
480.70	7723.77
480.88	7875.90
481.06	7988.25
481.24	7754.19
481.41	8088.89
481.59	8154.43
481.77	8142.72
481.95	8147.40
482.13	8528.91
482.31	8304.22
482.49	8477.42
482.67	8486.78
482.85	8758.28
483.03	8610.83
483.21	8716.16
483.39	8592.11
483.57	8835.52
483.74	8812.12
483.92	8950.21
484.10	8978.30
484.28	9186.60
484.46	9329.38
484.64	9310.65
484.82	9343.42
485.00	9504.92
485.18	9568.11
485.35	9577.47
485.53	9661.73
485.71	9802.16
485.89	9631.30
486.07	9715.56
486.25	9745.99
486.43	9844.29
486.61	10050.26
486.78	10052.60
486.96	10066.64
487.14	10457.51
487.32	10480.92
487.50	10342.83
487.68	10640.08
487.85	10644.76
488.03	10824.98
488.21	10953.71
488.39	10911.58
488.57	10993.50
488.75	10984.13
488.92	11129.25
489.10	11293.08
489.28	11384.37
489.46	11311.81
489.64	11342.24
489.81	11353.94
489.99	11435.86
490.17	11585.65
490.35	11859.49
490.53	11971.84
490.70	11882.90
490.88	11728.42
491.06	12287.81
491.24	12285.47
491.41	11964.82
491.59	12294.83
491.77	12283.13
491.95	12315.90
492.13	12545.27
492.30	12573.36
492.48	12475.06
492.66	12652.94
492.84	12762.94
493.01	12784.01
493.19	12837.84
493.37	13046.15
493.54	13130.41
493.72	13102.32
493.90	13268.50
494.08	13364.46
494.25	13575.11
494.43	13647.66
494.61	13600.85
494.79	13654.69
494.96	13631.28
495.14	13848.95
495.32	13848.95
495.49	13788.10
495.67	13991.72
495.85	14242.16
496.02	14111.09
496.20	14106.41
496.38	14384.93
496.55	14317.06
496.73	14614.30
496.91	14590.90
497.09	14623.67
497.26	14934.96
497.44	14792.19
497.62	14885.81
497.79	15117.52
497.97	14899.85
498.14	15096.46
498.32	15227.53
498.50	15309.44
498.67	15822.02
498.85	15199.44
499.03	15672.23
499.20	15367.96
499.38	15342.21
499.56	15798.62
499.73	15587.97
499.91	15737.76
500.08	16004.58
500.26	15749.46
500.44	15894.58
500.61	15999.90
500.79	15737.76
500.97	16107.57
501.14	16128.63
501.32	16414.18
501.49	16292.47
501.67	16355.66
501.84	16418.86
502.02	16304.17
502.20	16472.69
502.37	16711.42
502.55	16533.54
502.72	16692.70
502.90	16685.68
503.07	16783.98
503.25	16858.88
503.43	16734.83
503.60	17062.51
503.78	16910.37
503.95	16992.29
504.13	16985.27
504.30	17282.52
504.48	17259.11
504.65	17011.01
504.83	17135.06
505.01	17549.34
505.18	17324.65
505.36	17547.00
505.53	17465.08
505.71	17605.51
505.88	17570.40
506.06	17542.32
506.23	17678.07
506.41	17724.88
506.58	18066.60
506.76	17855.95
506.93	18017.44
507.11	18094.68
507.28	17994.04
507.46	18274.90
507.63	18202.35
507.81	18403.63
507.98	18342.78
508.16	18319.37
508.33	18537.04
508.50	18686.84
508.68	18614.28
508.85	18813.23
509.03	18609.60
509.20	18754.71
509.38	18977.06
509.55	18768.76
509.73	19007.49
509.90	18527.68
510.08	18937.27
510.25	19035.58
510.42	19204.10
510.60	19133.88
510.77	19246.23
510.95	19321.12
511.12	19501.34
511.30	19583.26
511.47	19178.35
511.64	19482.62
511.82	19742.42
511.99	19468.58
512.17	19882.85
512.34	19613.69
512.51	19758.80
512.69	19517.73
512.86	19363.25
513.04	19892.21
513.21	20077.12
513.38	20074.77
513.56	19920.30
513.73	20095.84
513.90	19922.64
514.08	19866.47
514.25	20201.16
514.43	20308.83
514.60	20489.05
514.77	20669.27
514.95	20624.80
515.12	20367.34
515.29	20400.11
515.47	20556.93
515.64	20587.35
515.81	20634.16
515.99	20507.77
516.16	21156.10
516.33	21223.98
516.51	21088.23
516.68	21188.87
516.85	20987.58
517.03	21053.12
517.20	21067.16
517.37	21139.72
517.54	21486.12
517.72	21163.12
517.89	21385.47
518.06	21216.96
518.24	21195.89
518.41	21069.50
518.58	21443.99
518.75	21291.85
518.93	21781.03
519.10	21425.26
519.27	21656.98
519.45	21427.60
519.62	21699.11
519.79	21387.82
519.96	21710.81
520.14	21633.57
520.31	21884.01
520.48	21935.50
520.65	21994.01
520.83	21930.82
521.00	22064.23
521.17	22068.91
521.34	22071.25
521.52	22347.44
521.69	22122.74
521.86	22459.78
522.03	22590.85
522.20	22441.06
522.38	22478.50
522.55	22569.79
522.72	22270.20
522.89	22684.47
523.07	22728.94
523.24	22867.03
523.41	22970.02
523.58	22831.93
523.75	22745.33
523.92	22457.44
524.10	22824.90
524.27	23047.26
524.44	23171.30
524.61	23393.65
524.78	23192.37
524.96	23293.01
525.13	23140.88
525.30	22981.72
525.47	22960.66
525.64	23271.95
525.81	23754.10
525.98	23470.89
526.16	23754.10
526.33	23328.12
526.50	23498.98
526.67	23260.24
526.84	23524.72
527.01	23707.29
527.18	23597.28
527.36	23711.97
527.53	23880.49
527.70	23889.85
527.87	24002.19
528.04	23751.76
528.21	23807.93
528.38	23784.52
528.55	24144.97
528.72	23971.77
528.89	24393.06
529.07	23941.34
529.24	23882.83
529.41	24151.99
529.58	23887.51
529.75	24116.88
529.92	24292.42
530.09	24212.84
530.26	24545.20
530.43	24664.57
530.60	24350.93
530.77	24388.38
530.94	24606.05
531.11	24669.25
531.28	24432.85
531.46	24613.07
531.63	24847.13
531.80	24725.42
531.97	24980.54
532.14	24758.19
532.31	24582.65
532.48	24549.88
532.65	25034.37
532.82	24606.05
532.99	24809.68
533.16	24737.12
533.33	25151.40
533.50	24943.09
533.67	25277.79
533.84	25146.72
534.01	25153.74
534.18	24816.70
534.35	25106.93
534.52	25123.31
534.69	25418.22
534.86	25586.74
535.03	25291.83
535.20	25039.05
535.37	25523.54
535.54	25626.53
535.71	25254.38
535.88	25488.43
536.05	25357.36
536.22	25799.73
536.38	25839.51
536.55	25844.20
536.72	25752.91
536.89	25544.61
537.06	26068.89
537.23	25825.47
537.40	25729.51
537.57	25706.10
537.74	25972.92
537.91	25886.32
538.08	26092.29
538.25	25954.20
538.42	26274.85
538.59	26108.68
538.75	25666.31
538.92	26043.14
539.09	26324.01
539.26	26171.87
539.43	26354.43
539.60	26380.18
539.77	26136.76
539.94	26438.69
540.11	26412.95
540.28	26569.76
540.44	26012.71
540.61	26153.15
540.78	26370.82
540.95	26384.86
541.12	26590.83
541.29	26384.86
541.46	26487.84
541.62	26637.64
541.79	26600.19
541.96	26253.79
542.13	26277.19
542.30	26424.65
542.47	26782.75
542.63	26913.82
542.80	26780.41
542.97	27321.07
543.14	27150.21
543.31	27089.36
543.48	27178.30
543.64	27484.91
543.81	27154.90
543.98	27461.51
544.15	27618.32
544.32	27538.74
544.48	27419.38
544.65	27393.63
544.82	27208.73
544.99	27381.93
545.16	26717.22
545.32	27372.57
545.49	27756.41
545.66	27407.67
545.83	27875.78
546.00	27896.85
546.16	27550.45
546.33	27646.41
546.50	27344.48
546.67	27651.09
546.83	27665.13
547.00	27627.68
547.17	28112.17
547.34	27826.63
547.50	27880.46
547.67	28175.37
547.84	27978.76
548.00	28053.66
548.17	28582.62
548.34	27716.62
548.51	27992.81
548.67	28025.57
548.84	28290.06
549.01	28173.03
549.18	28112.17
549.34	28397.72
549.51	28170.69
549.68	27817.27
549.84	28456.23
550.01	28088.77
550.18	27967.06
550.34	28343.89
550.51	28432.83
550.68	28657.52
550.84	28299.42
551.01	28376.66
551.18	28301.76
551.34	27901.53
551.51	28554.54
551.68	28587.30
551.84	28886.89
552.01	28369.63
552.18	28842.42
552.34	28524.11
552.51	28376.66
552.68	28507.72
552.84	28517.09
553.01	28713.69
553.18	28629.43
553.34	28884.55
553.51	28790.93
553.67	28804.97
553.84	28945.41
554.01	29268.40
554.17	29029.66
554.34	28994.56
554.51	28936.04
554.67	29027.32
554.84	28978.17
555.00	28814.34
555.17	28957.11
555.33	29413.51
555.50	28989.88
555.67	29172.44
555.83	29137.33
556.00	29450.96
556.16	29097.54
556.33	29123.29
556.50	29172.44
556.66	29420.53
556.83	29436.92
556.99	29610.12
557.16	29146.69
557.32	29460.32
557.49	29589.05
557.65	29099.88
557.82	29308.19
557.98	29298.83
558.15	29282.44
558.32	29378.40
558.48	29467.34
558.65	29502.45
558.81	29621.82
558.98	29069.45
559.14	29867.58
559.31	29385.43
559.47	29701.40
559.64	29841.83
559.80	29631.18
559.97	29628.84
560.13	29472.03
560.30	29495.43
560.46	29448.62
560.63	29685.01
560.79	29593.73
560.96	29495.43
561.12	30017.37
561.29	29418.19
561.45	29551.60
561.61	29783.32
561.78	29996.31
561.94	29902.68
562.11	29776.30
562.27	29539.90
562.44	30033.75
562.60	29874.60
562.77	29523.52
562.93	29656.93
563.10	30038.44
563.26	30003.33
563.42	30108.65
563.59	30270.15
563.75	30429.30
563.92	30115.67
564.08	29701.40
564.24	30022.05
564.41	30136.74
564.57	30066.52
564.74	30075.88
564.90	30211.64
565.07	30146.10
565.23	30281.85
565.39	30092.27
565.56	30202.27
565.72	30110.99
565.88	30197.59
566.05	30064.18
566.21	29940.13
566.38	29741.19
566.54	30438.67
566.70	30553.35
566.87	30277.17
567.03	30567.40
567.19	30572.08
567.36	30225.68
567.52	30328.66
567.68	30342.70
567.85	30319.30
568.01	30532.29
568.17	30291.21
568.34	30216.32
568.50	30394.20
568.66	30359.09
568.83	30614.21
568.99	30506.54
569.15	30630.59
569.32	30171.85
569.48	30085.25
569.64	30340.36
569.81	30338.02
569.97	30602.50
570.13	30342.70
570.30	30338.02
570.46	30703.15
570.62	30621.23
570.78	30490.16
570.95	30375.47
571.11	30831.88
571.27	30824.86
571.43	30522.93
571.60	30164.82
571.76	30764.00
571.92	30649.32
572.09	30476.12
572.25	30588.46
572.41	30759.32
572.57	31007.42
572.74	30782.73
572.90	30082.91
573.06	30649.32
573.22	30494.84
573.38	30682.08
573.55	30841.24
573.71	30771.02
573.87	30691.44
574.03	31138.49
574.20	30450.37
574.36	30305.26
574.52	30569.74
574.68	30309.94
574.84	30494.84
575.01	30923.16
575.17	30726.55
575.33	30649.32
575.49	30822.51
575.65	30923.16
575.82	30686.76
575.98	30981.67
576.14	30944.22
576.30	30668.04
576.46	30595.48
576.62	30735.92
576.79	30628.25
576.95	30621.23
577.11	30834.22
577.27	30953.58
577.43	30623.57
577.59	30691.44
577.75	31136.15
577.92	30572.08
578.08	30806.13
578.24	30525.27
578.40	30937.20
578.56	31510.63
578.72	31166.57
578.88	30998.06
579.04	31253.17
579.21	30866.98
579.37	30909.11
579.53	31054.23
579.69	31098.70
579.85	30745.28
580.01	30794.43
580.17	30515.90
580.33	30904.43
580.49	30782.73
580.65	30759.32
580.82	31108.06
580.98	30934.86
581.14	31353.82
581.30	30794.43
581.46	30719.53
581.62	31082.31
581.78	30504.20
581.94	31028.48
582.10	30941.88
582.26	30937.20
582.42	31000.40
582.58	30866.98
582.74	30551.01
582.90	30993.37
583.06	31459.14
583.22	30888.05
583.38	31108.06
583.54	30824.86
583.70	30785.07
583.86	30764.00
584.02	30773.36
584.18	31110.40
584.34	31353.82
584.50	31452.12
584.66	30974.65
584.82	30965.29
584.98	31159.55
585.14	31005.08
585.30	30581.44
585.46	30951.24
585.62	31042.53
585.78	30469.09
585.94	30869.33
586.10	30813.15
586.26	31199.34
586.42	31452.12
586.58	31147.85
586.74	30813.15
586.90	30920.82
587.06	31157.21
587.22	31295.30
587.38	30859.96
587.54	31019.12
587.70	31391.26
587.86	31344.45
588.02	31438.08
588.18	31438.08
588.34	31225.09
588.49	31033.16
588.65	31021.46
588.81	31094.02
588.97	31227.43
589.13	30944.22
589.29	30749.96
589.45	31077.63
589.61	31517.65
589.77	31402.97
589.93	31175.94
590.08	31590.21
590.24	31344.45
590.40	31208.70
590.56	31349.14
590.72	31421.69
590.88	31234.45
591.04	31173.60
591.20	31601.91
591.35	31779.79
591.51	31704.90
591.67	31641.70
591.83	31555.10
591.99	31557.44
592.15	31402.97
592.31	31496.59
592.46	31248.49
592.62	31859.37
592.78	31531.70
592.94	31564.46
593.10	31239.13
593.26	31332.75
593.41	31723.62
593.57	31349.14
593.73	31445.10
593.89	31821.92
594.05	31580.85
594.20	31189.98
594.36	31358.50
594.52	31613.62
594.68	31438.08
594.84	31503.61
594.99	31906.18
595.15	31569.15
595.31	31812.56
595.47	31386.58
595.62	31646.38
595.78	31438.08
595.94	31620.64
596.10	31840.65
596.25	31800.86
596.41	31250.83
596.57	31466.16
596.73	31768.09
596.88	31501.27
597.04	31419.35
597.20	31971.72
597.36	31641.70
597.51	32041.93
597.67	31676.81
597.83	31555.10
597.99	31578.51
598.14	31541.06
598.30	31454.46
598.46	31653.40
598.61	31639.36
598.77	31466.16
598.93	31938.95
599.09	31644.04
599.24	32149.60
599.40	31538.72
599.56	31749.37
599.71	31557.44
599.87	31756.39
600.03	31901.50
600.18	31868.73
600.34	31700.22
600.50	32027.89
600.65	31564.46
600.81	31962.36
600.97	31756.39
601.12	31915.54
601.28	31732.98
601.44	31711.92
601.59	32020.87
601.75	31569.15
601.91	31732.98
602.06	31531.70
602.22	31695.53
602.37	31372.54
602.53	31576.17
602.69	31732.98
602.84	31988.10
603.00	31833.63
603.16	31800.86
603.31	31929.59
603.47	32034.91
603.62	31524.68
603.78	31585.53
603.94	31531.70
604.09	31674.47
604.25	31627.66
604.40	31489.57
604.56	31850.01
604.71	31342.11
604.87	31604.25
605.03	31756.39
605.18	31913.20
605.34	31903.84
605.49	31372.54
605.65	31552.76
605.80	31431.05
605.96	31470.84
606.12	31353.82
606.27	31810.22
606.43	31374.88
606.58	31475.52
606.74	31737.66
606.89	31611.28
607.05	32114.49
607.20	31697.88
607.36	31374.88
607.51	31819.58
607.67	31342.11
607.82	31328.07
607.98	31641.70
608.13	31873.42
608.29	31405.31
608.44	31477.86
608.60	31538.72
608.75	31419.35
608.91	31578.51
609.06	31496.59
609.22	31831.29
609.37	31133.81
609.53	31463.82
609.68	31374.88
609.84	31342.11
609.99	31379.56
610.15	31325.73
610.30	31541.06
610.46	31304.67
610.61	31370.20
610.76	31363.18
610.92	31660.43
611.07	31264.88
611.23	31372.54
611.38	31285.94
611.54	31056.57
611.69	30984.01
611.84	31229.77
612.00	31337.43
612.15	30998.06
612.31	31550.42
612.46	30892.73
612.62	31187.64
612.77	31323.39
612.92	31604.25
613.08	31241.47
613.23	31028.48
613.39	31417.01
613.54	31454.46
613.69	31136.15
613.85	31358.50
614.00	31271.90
614.15	31072.95
614.31	31129.12
614.46	31372.54
614.62	31178.28
614.77	31227.43
614.92	31262.54
615.08	30909.11
615.23	31246.15
615.38	30986.35
615.54	30930.18
615.69	31070.61
615.84	30808.47
616.00	30946.56
616.15	30796.77
616.30	30906.77
616.46	31075.29
616.61	30958.27
616.76	31204.02
616.92	30920.82
617.07	30890.39
617.22	30555.69
617.37	30506.54
617.53	30785.07
617.68	30693.79
617.83	30735.92
617.99	30661.02
618.14	30682.08
618.29	30630.59
618.45	30579.10
618.60	30749.96
618.75	31002.74
618.90	30719.53
619.06	30644.63
619.21	30689.10
619.36	30862.30
619.51	30429.30
619.67	30349.73
619.82	30642.29
619.97	30623.57
620.12	30197.59
620.28	30106.31
620.43	30309.94
620.58	30679.74
620.73	30731.23
620.89	30541.65
621.04	30515.90
621.19	30787.41
621.34	30642.29
621.49	30071.20
621.65	30438.67
621.80	30188.23
621.95	29612.46
622.10	30838.90
622.25	30274.83
622.41	30213.98
622.56	30487.82
622.71	30415.26
622.86	30211.64
623.01	30359.09
623.16	30286.53
623.32	30101.63
623.47	29867.58
623.62	30338.02
623.77	30092.27
623.92	30148.44
624.07	29745.87
624.23	29745.87
624.38	30178.87
624.53	30003.33
624.68	30082.91
624.83	30331.00
624.98	30054.82
625.13	30071.20
625.29	30080.56
625.44	29820.77
625.59	29436.92
625.74	29820.77
625.89	30033.75
626.04	29436.92
626.19	29654.59
626.34	29949.50
626.49	29633.52
626.65	29900.34
626.80	30171.85
626.95	29645.23
627.10	29663.95
627.25	29895.66
627.40	29235.63
627.55	29394.79
627.70	29284.78
627.85	29589.05
628.00	29493.09
628.15	29659.27
628.30	29418.19
628.45	29165.42
628.60	29502.45
628.76	29743.53
628.91	29670.97
629.06	29296.49
629.21	29593.73
629.36	29837.15
629.51	29408.83
629.66	29369.04
629.81	29263.72
629.96	29109.24
630.11	29151.37
630.26	29422.87
630.41	29352.66
630.56	29191.16
630.71	29455.64
630.86	29298.83
631.01	29212.23
631.16	29259.04
631.31	29500.11
631.46	29256.70
631.61	29198.18
631.76	29001.58
631.91	29050.73
632.06	29205.20
632.21	29001.58
632.36	28802.63
632.51	28793.27
632.66	29207.55
632.81	28943.06
632.96	28870.51
633.10	28992.22
633.25	28940.72
633.40	29200.52
633.55	29015.62
633.70	28570.92
633.85	28762.84
634.00	28692.63
634.15	28856.46
634.30	29071.79
634.45	28800.29
634.60	28563.90
634.75	28718.37
634.90	28933.70
635.05	28896.25
635.19	28650.50
635.34	28959.45
635.49	28849.44
635.64	28645.82
635.79	28730.08
635.94	28678.58
636.09	28751.14
636.24	28259.63
636.39	28421.13
636.53	28629.43
636.68	29046.05
636.83	28479.64
636.98	28828.38
637.13	28514.75
637.28	28610.71
637.43	28936.04
637.57	28367.29
637.72	28704.33
637.87	28582.62
638.02	28606.03
638.17	28568.58
638.32	28304.10
638.46	28526.45
638.61	28156.64
638.76	28313.46
638.91	28325.16
639.06	28271.33
639.20	28465.60
639.35	28360.27
639.50	28428.15
639.65	28760.50
639.80	28240.90
639.94	28322.82
640.09	28067.70
640.24	28313.46
640.39	27824.29
640.54	27955.36
640.68	27955.36
640.83	28290.06
640.98	28187.07
641.13	27985.79
641.27	28020.89
641.42	28290.06
641.57	28147.28
641.72	27861.74
641.86	28259.63
642.01	27491.93
642.16	28011.53
642.31	27702.58
642.45	27772.80
642.60	27653.43
642.75	27262.56
642.90	27908.55
643.04	27674.49
643.19	27442.78
643.34	27728.33
643.48	27723.65
643.63	27983.44
643.78	27810.25
643.93	27854.72
644.07	27508.32
644.22	27789.18
644.37	27847.69
644.51	27871.10
644.66	27969.40
644.81	27733.01
644.95	27632.36
645.10	27615.98
645.25	27913.23
645.39	27674.49
645.54	27489.59
645.69	27487.25
645.83	27520.02
645.98	27763.43
646.13	27541.08
646.27	27768.12
646.42	27281.28
646.57	27503.64
646.71	27248.52
646.86	27578.53
647.00	27360.86
647.15	27503.64
647.30	27634.71
647.44	27349.16
647.59	27417.04
647.74	26953.61
647.88	27669.81
648.03	27520.02
648.17	27367.88
648.32	27513.00
648.47	27693.22
648.61	27199.37
648.76	27307.03
648.90	27065.96
649.05	27063.61
649.20	27182.98
649.34	27077.66
649.49	26974.67
649.63	27194.68
649.78	27391.29
649.92	26958.29
650.07	27213.41
650.21	27040.21
650.36	26892.76
650.51	27204.05
650.65	27037.87
650.80	27438.10
650.94	26913.82
651.09	27194.68
651.23	26785.09
651.38	27091.70
651.52	27112.77
651.67	26761.69
651.81	27061.27
651.96	26604.87
652.10	26817.86
652.25	26979.36
652.39	27070.64
652.54	27323.41
652.68	26977.01
652.83	26904.46
652.97	26775.73
653.12	27260.22
653.26	27042.55
653.41	26735.94
653.55	27028.51
653.70	26485.50
653.84	26991.06
653.99	26457.42
654.13	26609.55
654.27	26539.33
654.42	26375.50
654.56	26632.96
654.71	26651.68
654.85	26471.46
655.00	26822.54
655.14	26485.50
655.29	26415.29
655.43	26689.13
655.57	26848.29
655.72	26288.90
655.86	26426.99
656.01	26403.58
656.15	26300.60
656.30	26518.27
656.44	26302.94
656.58	26197.62
656.73	26394.22
656.87	26366.13
657.01	26434.01
657.16	26675.09
657.30	26448.05
657.45	26387.20
657.59	26258.47
657.73	25874.62
657.88	26066.55
658.02	26314.64
658.16	26099.31
658.31	26176.55
658.45	26157.83
658.60	25832.49
658.74	25455.67
658.88	25771.64
659.03	25724.83
659.17	26228.04
659.31	25692.06
659.46	25874.62
659.60	26309.96
659.74	25923.77
659.89	26089.95
660.03	25759.94
660.17	25736.53
660.32	25507.16
660.46	25221.61
660.60	25436.94
660.74	25085.86
660.89	25649.93
661.03	25373.75
661.17	25390.13
661.32	25544.61
661.46	25582.06
661.60	25390.13
661.74	25493.12
661.89	25689.72
662.03	25376.09
662.17	25390.13
662.31	25198.21
662.46	25441.62
662.60	25177.14
662.74	25160.76
662.88	24655.20
663.03	24826.06
663.17	25149.06
663.31	25139.69
663.45	24830.74
663.60	25043.73
663.74	24645.84
663.88	24526.47
664.02	24697.33
664.17	25303.53
664.31	24783.93
664.45	24905.64
664.59	24737.12
664.73	24627.12
664.88	24547.54
665.02	24453.92
665.16	24430.51
665.30	24374.34
665.44	24535.84
665.59	24079.43
665.73	24388.38
665.87	24486.68
666.01	24662.22
666.15	24266.67
666.29	24507.75
666.44	24456.26
666.58	24259.65
666.72	24173.05
666.86	24163.69
667.00	24315.83
667.14	24276.04
667.28	24025.60
667.43	23997.51
667.57	23833.68
667.71	23833.68
667.85	23969.43
667.99	23683.88
668.13	23964.75
668.27	23985.81
668.41	23946.02
668.56	23473.23
668.70	24013.90
668.84	23805.59
668.98	23653.45
669.12	24142.63
669.26	23608.98
669.40	23559.83
669.54	23704.95
669.68	23527.06
669.82	23693.24
669.96	23356.21
670.10	23077.68
670.25	23293.01
670.39	23302.37
670.53	23201.73
670.67	22946.61
670.81	23269.61
670.95	23281.31
671.09	23679.20
671.23	23080.02
671.37	23330.46
671.51	23122.15
671.65	23187.69
671.79	23257.90
671.93	23026.19
672.07	22883.42
672.21	22817.88
672.35	22558.08
672.49	22513.61
672.63	22869.37
672.77	22427.01
672.91	22724.26
673.05	22476.16
673.19	22391.91
673.33	22345.09
673.47	22506.59
673.61	22441.06
673.75	22642.34
673.89	22471.48
674.03	22576.81
674.17	22087.64
674.31	22455.10
674.45	22059.55
674.59	21888.69
674.73	21991.67
674.87	22068.91
675.01	21799.75
675.15	21785.71
675.29	21916.78
675.43	21640.59
675.56	21902.73
675.70	21926.14
675.84	21792.73
675.98	21151.42
676.12	22244.45
676.26	21862.94
676.40	21614.85
676.54	21652.30
676.68	21317.60
676.82	21088.23
676.96	21645.27
677.10	21022.69
677.23	20809.70
677.37	20947.79
677.51	21067.16
677.65	21069.50
677.79	20662.25
677.93	21167.80
678.07	20695.02
678.21	20549.90
678.34	20631.82
678.48	20592.03
678.62	20723.10
678.76	20479.69
678.90	20460.96
679.04	20318.19
679.18	20367.34
679.31	20173.08
679.45	20233.93
679.59	19950.73
679.73	20044.35
679.87	19850.08
680.00	19777.53
680.14	19800.93
680.28	19854.76
680.42	19913.28
680.56	19676.88
680.70	19829.02
680.83	19796.25
680.97	19868.81
681.11	19658.16
681.25	19552.84
681.39	19381.98
681.52	19403.04
681.66	19538.79
681.80	19297.72
681.94	19049.62
682.07	19403.04
682.21	19171.33
682.35	18967.70
682.49	18693.86
682.62	19033.24
682.76	18733.65
682.90	19105.79
683.04	18834.29
683.17	18934.93
683.31	18916.21
683.45	18834.29
683.59	18574.49
683.72	18637.69
683.86	18684.50
684.00	18630.66
684.13	18600.24
684.27	18230.43
684.41	18366.18
684.55	18223.41
684.68	17853.61
684.82	18026.81
684.96	17867.65
685.09	17888.71
685.23	17708.49
685.37	17928.50
685.50	17832.54
685.64	17862.97
685.78	17797.43
685.91	17727.22
686.05	17680.41
686.19	17577.42
686.32	17675.73
686.46	17130.38
686.60	17125.70
686.73	17221.66
686.87	17142.08
687.01	17207.62
687.14	16819.09
687.28	16961.86
687.42	16915.05
687.55	16891.65
687.69	16641.21
687.82	16655.25
687.96	16992.29
688.10	16486.73
688.23	16882.28
688.37	16676.32
688.50	16730.15
688.64	16659.93
688.78	16580.36
688.91	16568.65
689.05	16449.28
689.18	16346.30
689.32	15934.37
689.46	16121.61
689.59	16058.42
689.73	16365.03
689.86	15899.26
690.00	16049.05
690.13	15985.86
690.27	15793.94
690.41	15859.47
690.54	15545.84
690.68	15798.62
690.81	15597.33
690.95	15557.54
691.08	15658.18
691.22	15641.80
691.35	15531.80
691.49	15424.13
691.62	15775.21
691.76	15147.95
691.89	15234.55
692.03	15087.09
692.16	15040.28
692.30	14892.83
692.43	15007.52
692.57	14691.54
692.70	15056.67
692.84	14829.63
692.97	14871.76
693.11	14864.74
693.24	14668.14
693.38	14642.39
693.51	14464.51
693.65	14441.11
693.78	14356.85
693.92	14469.19
694.05	14448.13
694.19	14284.29
694.32	14108.75
694.45	14246.84
694.59	14087.68
694.72	14106.41
694.86	14038.53
694.99	13930.87
695.13	13816.18
695.26	13701.50
695.39	13813.84
695.53	13788.10
695.66	13795.12
695.80	13523.62
695.93	13736.60
696.07	13916.83
696.20	13666.39
696.33	13767.03
696.47	13455.74
696.60	13439.36
696.73	13167.85
696.87	13280.20
697.00	13289.56
697.14	13104.66
697.27	12865.92
697.40	12847.20
697.54	13083.59
697.67	12697.41
697.80	12964.23
697.94	12655.28
698.07	12636.55
698.21	12676.34
698.34	12573.36
698.47	12468.03
698.61	12503.14
698.74	12702.09
698.87	12528.89
699.01	12475.06
699.14	12395.48
699.27	12322.92
699.40	11960.14
699.54	12248.02
699.67	12262.07
699.80	12166.10
699.94	12156.74
700.07	11960.14
700.20	11936.73
700.34	11847.79
700.47	11690.98
700.60	11665.23
700.73	11798.64
700.87	11527.14
701.00	11805.66
701.13	11501.39
701.26	11824.39
701.40	11566.93
701.53	11452.24
701.66	11543.52
701.79	11239.25
701.93	11353.94
702.06	11059.03
702.19	11110.52
702.32	11143.29
702.46	11211.17
702.59	10986.47
702.72	10867.11
702.85	10888.17
702.99	10782.85
703.12	10731.36
703.25	10644.76
703.38	10647.10
703.51	10834.34
703.65	10640.08
703.78	10766.46
703.91	10483.26
704.04	10773.49
704.17	10532.41
704.31	10579.22
704.44	10457.51
704.57	10572.20
704.70	10300.70
704.83	10209.42
704.96	10111.11
705.10	10073.67
705.23	10115.80
>>>>>End Processed Spectral Data<<<<<
