SpectraSuite Data File
++++++++++++++++++++++++++++++++++++
Date: Fri Oct 18 13:57:53 GMT-05:00 2013
User: bianchi
Dark Spectrum Present: No
Reference Spectrum Present: No
Number of Sampled Component Spectra: 1
Spectrometers: USB2+H05261
Integration Time (usec): 50000 (USB2+H05261)
Spectra Averaged: 1 (USB2+H05261)
Boxcar Smoothing: 0 (USB2+H05261)
Correct for Electrical Dark: No (USB2+H05261)
Strobe/Lamp Enabled: No (USB2+H05261)
Correct for Detector Non-linearity: No (USB2+H05261)
Correct for Stray Light: No (USB2+H05261)
Number of Pixels in Processed Spectrum: 2048
>>>>>Begin Processed Spectral Data<<<<<
365.73	0.00
365.92	0.00
366.12	0.00
366.32	0.00
366.52	0.00
366.72	0.00
366.91	0.00
367.11	0.00
367.31	0.00
367.51	0.00
367.70	0.00
367.90	0.00
368.10	0.00
368.30	0.00
368.49	0.00
368.69	0.00
368.89	0.00
369.09	0.00
369.28	0.00
369.48	0.00
369.68	0.00
369.87	0.00
370.07	0.00
370.27	0.00
370.47	35.11
370.66	42.13
370.86	159.16
371.06	173.20
371.25	110.01
371.45	124.05
371.65	177.88
371.84	142.77
372.04	147.45
372.24	241.08
372.44	191.92
372.63	203.63
372.83	152.13
373.03	259.80
373.22	245.76
373.42	231.71
373.62	133.41
373.81	229.37
374.01	271.50
374.21	245.76
374.40	238.73
374.60	248.10
374.79	222.35
374.99	250.44
375.19	297.25
375.38	313.63
375.58	224.69
375.78	304.27
375.97	262.14
376.17	278.52
376.37	287.89
376.56	285.55
376.76	353.42
376.95	194.26
377.15	313.63
377.35	308.95
377.54	283.20
377.74	166.18
377.93	290.23
378.13	227.03
378.33	220.01
378.52	313.63
378.72	255.12
378.91	250.44
379.11	304.27
379.31	341.72
379.50	266.82
379.70	367.46
379.89	318.31
380.09	369.80
380.28	294.91
380.48	297.25
380.68	283.20
380.87	322.99
381.07	297.25
381.26	367.46
381.46	397.89
381.65	388.53
381.85	250.44
382.04	348.74
382.24	346.40
382.43	276.18
382.63	397.89
382.83	299.59
383.02	301.93
383.22	315.97
383.41	315.97
383.61	367.46
383.80	351.08
384.00	348.74
384.19	454.06
384.39	402.57
384.58	362.78
384.78	425.98
384.97	388.53
385.17	428.32
385.36	425.98
385.56	390.87
385.75	353.42
385.95	332.36
386.14	386.19
386.34	358.10
386.53	393.21
386.72	493.85
386.92	514.92
387.11	423.64
387.31	458.74
387.50	360.44
387.70	362.78
387.89	430.66
388.09	498.53
388.28	498.53
388.48	475.13
388.67	451.72
388.86	456.40
389.06	397.89
389.25	535.98
389.45	496.19
389.64	388.53
389.84	472.79
390.03	395.55
390.22	533.64
390.42	409.59
390.61	437.68
390.81	521.94
391.00	505.56
391.19	585.13
391.39	498.53
391.58	496.19
391.78	533.64
391.97	535.98
392.16	524.28
392.36	559.39
392.55	498.53
392.75	528.96
392.94	550.03
393.13	578.11
393.33	540.66
393.52	573.43
393.71	620.24
393.91	575.77
394.10	533.64
394.29	571.09
394.49	571.09
394.68	613.22
394.88	650.67
395.07	533.64
395.26	573.43
395.46	606.20
395.65	702.16
395.84	631.94
396.04	706.84
396.23	692.80
396.42	711.52
396.62	685.78
396.81	674.07
397.00	674.07
397.19	627.26
397.39	678.76
397.58	669.39
397.77	765.36
397.97	678.76
398.16	667.05
398.35	732.59
398.55	744.29
398.74	699.82
398.93	737.27
399.12	676.41
399.32	706.84
399.51	697.48
399.70	767.70
399.90	774.72
400.09	807.48
400.28	751.31
400.47	737.27
400.67	854.30
400.86	805.14
401.05	870.68
401.24	842.59
401.44	837.91
401.63	849.61
401.82	823.87
402.01	798.12
402.21	814.51
402.40	840.25
402.59	894.08
402.78	898.77
402.97	894.08
403.17	847.27
403.36	912.81
403.55	873.02
403.74	870.68
403.93	929.19
404.13	919.83
404.32	908.13
404.51	891.74
404.70	992.39
404.89	1015.79
405.09	933.87
405.28	987.71
405.47	1048.56
405.66	929.19
405.85	959.62
406.05	987.71
406.24	1013.45
406.43	1048.56
406.62	1041.54
406.81	1142.18
407.00	1064.94
407.20	999.41
407.39	978.34
407.58	1064.94
407.77	1125.80
407.96	1097.71
408.15	1149.20
408.34	1013.45
408.54	1125.80
408.73	1228.78
408.92	1179.63
409.11	1203.04
409.30	1196.01
409.49	1086.01
409.68	1032.18
409.87	1153.88
410.07	1088.35
410.26	1181.97
410.45	1181.97
410.64	1266.23
410.83	1170.27
411.02	1275.59
411.21	1277.93
411.40	1317.72
411.59	1235.80
411.78	1387.94
411.98	1380.92
412.17	1308.36
412.36	1263.89
412.55	1263.89
412.74	1273.25
412.93	1455.81
413.12	1284.95
413.31	1406.66
413.50	1399.64
413.69	1385.60
413.88	1348.15
414.07	1369.21
414.26	1434.75
414.45	1465.18
414.64	1526.03
414.83	1380.92
415.02	1493.26
415.22	1610.29
415.41	1671.14
415.60	1621.99
415.79	1479.22
415.98	1558.80
416.17	1661.78
416.36	1584.54
416.55	1577.52
416.74	1713.27
416.93	1598.59
417.12	1696.89
417.31	1591.56
417.50	1736.68
417.69	1760.08
417.88	1792.85
418.07	1776.47
418.26	1776.47
418.45	1792.85
418.64	1804.55
418.83	1863.07
419.02	1818.60
419.21	1778.81
419.39	1944.99
419.58	1839.66
419.77	1837.32
419.96	1907.54
420.15	1900.52
420.34	1881.79
420.53	1905.20
420.72	1923.92
420.91	1902.86
421.10	1912.22
421.29	1849.02
421.48	1912.22
421.67	2033.93
421.86	1987.11
422.05	1947.33
422.24	1949.67
422.43	1996.48
422.61	1961.37
422.80	2003.50
422.99	1961.37
423.18	2057.33
423.37	2113.50
423.56	2033.93
423.75	2118.18
423.94	1973.07
424.13	1888.81
424.32	1956.69
424.50	2045.63
424.69	2083.08
424.88	2108.82
425.07	2010.52
425.26	2059.67
425.45	2111.16
425.64	2101.80
425.83	2024.56
426.01	2162.66
426.20	2052.65
426.39	2036.27
426.58	2136.91
426.77	2134.57
426.96	2120.53
427.15	2115.84
427.33	2076.06
427.52	2078.40
427.71	2113.50
427.90	2104.14
428.09	2279.68
428.28	2167.34
428.46	2209.47
428.65	2120.53
428.84	2263.30
429.03	2387.35
429.22	2214.15
429.40	2230.53
429.59	2277.34
429.78	2244.57
429.97	2146.27
430.16	2375.64
430.34	2214.15
430.53	2319.47
430.72	2345.22
430.91	2317.13
431.10	2375.64
431.28	2319.47
431.47	2436.50
431.66	2445.86
431.85	2380.32
432.03	2455.22
432.22	2436.50
432.41	2445.86
432.60	2473.95
432.79	2443.52
432.97	2605.02
433.16	2513.74
433.35	2576.93
433.54	2609.70
433.72	2670.55
433.91	2490.33
434.10	2595.65
434.28	2607.36
434.47	2562.89
434.66	2633.10
434.85	2597.99
435.03	2555.86
435.22	2698.64
435.41	2698.64
435.59	2605.02
435.78	2815.66
435.97	2649.49
436.16	2712.68
436.34	2654.17
436.53	2626.08
436.72	2717.36
436.90	2705.66
437.09	2764.17
437.28	2789.92
437.46	2815.66
437.65	2782.90
437.84	2801.62
438.02	2855.45
438.21	2832.05
438.40	2834.39
438.58	2850.77
438.77	2913.97
438.96	2935.03
439.14	2981.84
439.33	2911.63
439.52	3049.72
439.70	3112.91
439.89	3045.04
440.08	3026.31
440.26	3126.96
440.45	3117.59
440.63	3119.93
440.82	3201.85
441.01	3157.38
441.19	3295.47
441.38	3251.00
441.57	3382.07
441.75	3157.38
441.94	3353.99
442.12	3339.94
442.31	3162.06
442.50	3487.40
442.68	3487.40
442.87	3342.28
443.05	3335.26
443.24	3449.95
443.43	3396.12
443.61	3456.97
443.80	3602.08
443.98	3323.56
444.17	3344.63
444.35	3485.06
444.54	3426.54
444.73	3442.93
444.91	3396.12
445.10	3501.44
445.28	3393.78
445.47	3440.59
445.65	3550.59
445.84	3543.57
446.02	3585.70
446.21	3494.42
446.39	3424.20
446.58	3494.42
446.77	3611.45
446.95	3482.72
447.14	3536.55
447.32	3550.59
447.51	3510.80
447.69	3625.49
447.88	3698.05
448.06	3641.87
448.25	3625.49
448.43	3693.37
448.62	3562.30
448.80	3527.19
448.99	3571.66
449.17	3695.71
449.36	3676.98
449.54	3719.11
449.73	3705.07
449.91	3768.26
450.10	3735.50
450.28	3913.38
450.46	3655.92
450.65	3730.81
450.83	3847.84
451.02	3810.39
451.20	3824.44
451.39	3871.25
451.57	3974.23
451.76	3812.73
451.94	3885.29
452.13	4002.32
452.31	3911.04
452.49	3854.86
452.68	3838.48
452.86	3922.74
453.05	3995.29
453.23	4063.17
453.42	3873.59
453.60	3871.25
453.78	4194.24
453.97	3981.25
454.15	4044.45
454.34	4007.00
454.52	3988.27
454.70	3941.46
454.89	4107.64
455.07	4142.75
455.26	4234.03
455.44	4102.96
455.62	4088.92
455.81	4147.43
455.99	4044.45
456.17	4224.67
456.36	4266.80
456.54	4322.97
456.73	4287.86
456.91	4358.08
457.09	4217.65
457.28	4416.59
457.46	4348.72
457.64	4458.72
457.83	4374.46
458.01	4430.63
458.19	4435.32
458.38	4362.76
458.56	4491.49
458.74	4493.83
458.93	4578.09
459.11	4580.43
459.29	4395.53
459.48	4566.39
459.66	4615.54
459.84	4660.01
460.03	4477.44
460.21	4573.41
460.39	4662.35
460.57	4533.62
460.76	4667.03
460.94	4770.01
461.12	4636.60
461.31	4662.35
461.49	4720.86
461.67	4725.54
461.85	4737.24
462.04	4812.14
462.22	5001.72
462.40	4788.74
462.59	4814.48
462.77	4718.52
462.95	4896.40
463.13	4870.65
463.32	4990.02
463.50	4863.63
463.68	4903.42
463.86	4912.78
464.05	4894.06
464.23	5032.15
464.41	5107.05
464.59	4760.65
464.78	5195.99
464.96	4954.91
465.14	5034.49
465.32	4975.98
465.50	5200.67
465.69	5093.01
465.87	5203.01
466.05	4983.00
466.23	5167.90
466.41	5064.92
466.60	5441.75
466.78	5107.05
466.96	5029.81
467.14	5221.74
467.32	4992.36
467.51	5289.61
467.69	5273.23
467.87	5170.24
468.05	5329.40
468.23	5191.31
468.41	5313.02
468.60	5177.26
468.78	5518.98
468.96	5320.04
469.14	5348.12
469.32	5439.40
469.50	5418.34
469.69	5526.00
469.87	5680.48
470.05	5673.46
470.23	5432.38
470.41	5596.22
470.59	5561.11
470.77	5518.98
470.95	5568.13
471.14	5476.85
471.32	5650.05
471.50	5668.78
471.68	5645.37
471.86	5743.67
472.04	5687.50
472.22	5811.55
472.40	5858.36
472.58	5921.56
472.77	5795.17
472.95	5682.82
473.13	5940.28
473.31	5881.77
473.49	5959.00
473.67	6029.22
473.85	6047.94
474.03	6087.73
474.21	6108.80
474.39	6097.10
474.57	6209.44
474.75	6317.11
474.93	6125.18
475.12	6342.85
475.30	6375.62
475.48	6368.60
475.66	6244.55
475.84	6291.36
476.02	6436.47
476.20	6558.18
476.38	6410.73
476.56	6686.91
476.74	6686.91
476.92	6654.14
477.10	6626.06
477.28	6677.55
477.46	6626.06
477.64	6665.85
477.82	6752.45
478.00	6991.18
478.18	7047.35
478.36	7119.91
478.54	7302.47
478.72	7089.48
478.90	7368.01
479.08	7304.81
479.26	7304.81
479.44	7585.68
479.62	7407.80
479.80	7452.27
479.98	7702.70
480.16	7585.68
480.34	7826.75
480.52	7655.89
480.70	7815.05
480.88	7911.01
481.06	7976.55
481.24	7913.35
481.41	7894.63
481.59	8116.98
481.77	7974.21
481.95	8191.88
482.13	8245.71
482.31	8145.06
482.49	8306.56
482.67	8348.69
482.85	8681.05
483.03	8599.13
483.21	8655.30
483.39	8814.46
483.57	8699.77
483.74	8676.37
483.92	8748.92
484.10	9053.19
484.28	8964.25
484.46	9245.12
484.64	9355.12
484.82	9268.52
485.00	9226.39
485.18	9348.10
485.35	9610.24
485.53	9341.08
485.71	9572.79
485.89	9678.12
486.07	9729.61
486.25	9816.21
486.43	9823.23
486.61	10040.90
486.78	10169.63
486.96	10291.34
487.14	10122.82
487.32	10310.06
487.50	10455.17
487.68	10300.70
487.85	10679.86
488.03	10628.37
488.21	10803.91
488.39	10806.25
488.57	10712.63
488.75	10780.51
488.92	11000.52
489.10	11283.72
489.28	11073.07
489.46	11403.09
489.64	11239.25
489.81	11459.26
489.99	11571.61
490.17	11557.57
490.35	11676.93
490.53	11616.08
490.70	11793.96
490.88	11779.92
491.06	11831.41
491.24	12053.76
491.41	11946.09
491.59	12081.85
491.77	12210.57
491.95	12290.15
492.13	12421.22
492.30	12549.95
492.48	12645.91
492.66	12449.31
492.84	12575.70
493.01	12596.76
493.19	12734.85
493.37	13046.15
493.54	13046.15
493.72	13160.83
493.90	12947.84
494.08	13289.56
494.25	13497.87
494.43	13453.40
494.61	13647.66
494.79	13525.96
494.96	13661.71
495.14	13504.89
495.32	13811.50
495.49	13703.84
495.67	13874.70
495.85	13975.34
496.02	14422.38
496.20	13926.19
496.38	14265.57
496.55	13914.48
496.73	14626.01
496.91	14377.91
497.09	14387.27
497.26	14583.88
497.44	14544.09
497.62	14771.12
497.79	14913.89
497.97	14829.63
498.14	15300.08
498.32	15262.63
498.50	15007.52
498.67	15351.57
498.85	15255.61
499.03	15403.07
499.20	15477.96
499.38	15342.21
499.56	15452.22
499.73	15655.84
499.91	15733.08
500.08	15754.15
500.26	15503.71
500.44	15618.39
500.61	16016.29
500.79	16105.23
500.97	15829.04
501.14	16126.29
501.32	16119.27
501.49	16126.29
501.67	16208.21
501.84	16222.25
502.02	16191.83
502.20	16386.09
502.37	16409.50
502.55	16423.54
502.72	16706.74
502.90	16444.60
503.07	16641.21
503.25	16746.53
503.43	16589.72
503.60	17188.89
503.78	17207.62
503.95	17095.27
504.13	16879.94
504.30	17172.51
504.48	16812.07
504.65	17226.34
504.83	16917.39
505.01	17153.79
505.18	17350.39
505.36	17713.17
505.53	17348.05
505.71	17774.03
505.88	17483.80
506.06	17589.13
506.23	17783.39
506.41	17767.01
506.58	17790.41
506.76	17788.07
506.93	17996.38
507.11	17668.70
507.28	17900.42
507.46	18040.85
507.63	17937.87
507.81	18216.39
507.98	18228.09
508.16	17921.48
508.33	18239.79
508.50	18118.09
508.68	18171.92
508.85	18532.36
509.03	18335.76
509.20	18511.30
509.38	18799.18
509.55	18721.95
509.73	18649.39
509.90	18611.94
510.08	18766.42
510.25	18661.09
510.42	19112.81
510.60	19094.09
510.77	19094.09
510.95	19145.58
511.12	19105.79
511.30	19133.88
511.47	19171.33
511.64	19243.88
511.82	19431.13
511.99	19370.27
512.17	19381.98
512.34	19417.08
512.51	19578.58
512.69	19674.54
512.86	19311.76
513.04	19611.35
513.21	19906.26
513.38	20016.26
513.56	20163.72
513.73	19484.96
513.90	19674.54
514.08	19728.38
514.25	19892.21
514.43	19920.30
514.60	20126.27
514.77	20442.24
514.95	20486.71
515.12	20404.79
515.29	20250.32
515.47	20416.49
515.64	20407.13
515.81	20386.07
515.99	20713.74
516.16	20634.16
516.33	20933.75
516.51	21125.68
516.68	20929.07
516.85	20573.31
517.03	20769.91
517.20	21240.36
517.37	21120.99
517.54	21163.12
517.72	20985.24
517.89	20835.45
518.06	20943.11
518.24	21153.76
518.41	21125.68
518.58	21111.63
518.75	21329.30
518.93	21408.88
519.10	21235.68
519.27	21647.61
519.45	21458.03
519.62	21610.17
519.79	21245.04
519.96	21427.60
520.14	21738.90
520.31	21741.24
520.48	21954.22
520.65	21895.71
520.83	22057.21
521.00	21752.94
521.17	21668.68
521.34	21715.49
521.52	21642.93
521.69	22204.66
521.86	22256.15
522.03	22176.58
522.20	22504.25
522.38	22167.21
522.55	22391.91
522.72	22593.19
522.89	22321.69
523.07	22668.09
523.24	22419.99
523.41	22867.03
523.58	22735.96
523.75	22658.73
523.92	22382.54
524.10	22761.71
524.27	23234.50
524.44	23056.62
524.61	22904.48
524.78	22792.14
524.96	23129.17
525.13	23061.30
525.30	22834.27
525.47	22948.95
525.64	23042.57
525.81	22761.71
525.98	23433.44
526.16	23274.29
526.33	23101.09
526.50	23330.46
526.67	23143.22
526.84	23351.52
527.01	23225.14
527.18	23435.78
527.36	23658.14
527.53	23896.87
527.70	23789.20
527.87	23779.84
528.04	23721.33
528.21	23749.42
528.38	23489.62
528.55	23786.86
528.72	23550.47
528.89	23798.57
529.07	23744.73
529.24	24102.84
529.41	23934.32
529.58	23828.99
529.75	23990.49
529.92	24163.69
530.09	24018.58
530.26	24271.36
530.43	24208.16
530.60	24236.25
530.77	24006.87
530.94	24400.08
531.11	24236.25
531.28	24247.95
531.46	24463.28
531.63	24711.38
531.80	24601.37
531.97	24521.79
532.14	24643.50
532.31	25053.09
532.48	24379.02
532.65	24594.35
532.82	24472.64
532.99	24596.69
533.16	24797.98
533.33	24858.83
533.50	24861.17
533.67	24994.58
533.84	24816.70
534.01	24741.80
534.18	24917.34
534.35	24910.32
534.52	24877.55
534.69	25090.54
534.86	25205.23
535.03	25104.59
535.20	25429.92
535.37	25256.72
535.54	25289.49
535.71	25336.30
535.88	25408.86
536.05	25404.17
536.22	25364.39
536.38	25820.79
536.55	25455.67
536.72	25383.11
536.89	25392.47
537.06	25465.03
537.23	25450.99
537.40	25568.01
537.57	25610.14
537.74	25734.19
537.91	25930.80
538.08	25804.41
538.25	25612.48
538.42	25895.69
538.59	26001.01
538.75	25355.02
538.92	25881.64
539.09	25685.04
539.26	25919.09
539.43	25675.68
539.60	25816.11
539.77	25909.73
539.94	25799.73
540.11	26057.18
540.28	25895.69
540.44	26001.01
540.61	26094.63
540.78	26305.28
540.95	26487.84
541.12	25853.56
541.29	26284.22
541.46	26579.12
541.62	26335.71
541.79	26101.65
541.96	26017.40
542.13	26195.28
542.30	26567.42
542.47	26316.98
542.63	26602.53
542.80	26773.39
542.97	27246.18
543.14	26815.52
543.31	27061.27
543.48	26712.53
543.64	27187.66
543.81	26934.88
543.98	27133.83
544.15	27054.25
544.32	27098.72
544.48	27679.18
544.65	26962.97
544.82	27178.30
544.99	26984.04
545.16	27110.43
545.32	26965.31
545.49	27672.15
545.66	27604.28
545.83	27452.14
546.00	27803.22
546.16	27211.07
546.33	27435.76
546.50	26740.62
546.67	27339.80
546.83	27143.19
547.00	27538.74
547.17	27541.08
547.34	27470.87
547.50	27765.78
547.67	27974.08
547.84	27644.07
548.00	27854.72
548.17	27798.54
548.34	27356.18
548.51	28002.17
548.67	27737.69
548.84	28133.24
549.01	27927.27
549.18	27634.71
549.34	28222.18
549.51	27800.88
549.68	28231.54
549.84	27569.17
550.01	27981.10
550.18	27943.66
550.34	28205.80
550.51	27934.29
550.68	28379.00
550.84	28147.28
551.01	27913.23
551.18	27843.01
551.34	27688.54
551.51	27896.85
551.68	28589.64
551.84	28411.76
552.01	28238.56
552.18	28283.03
552.34	28446.87
552.51	28343.89
552.68	28250.27
552.84	28350.91
553.01	28081.75
553.18	28467.94
553.34	28374.31
553.51	28453.89
553.67	28402.40
553.84	28833.06
554.01	28821.36
554.17	28374.31
554.34	28769.86
554.51	28699.65
554.67	28645.82
554.84	28617.73
555.00	28584.96
555.17	28961.79
555.33	28716.03
555.50	28573.26
555.67	28570.92
555.83	28971.15
556.00	28751.14
556.16	29092.86
556.33	28868.17
556.50	28802.63
556.66	29165.42
556.83	28992.22
556.99	29376.06
557.16	29088.18
557.32	29191.16
557.49	29291.80
557.65	28669.22
557.82	28952.43
557.98	28924.34
558.15	28912.64
558.32	29345.64
558.48	29525.86
558.65	29778.64
558.81	29015.62
558.98	29256.70
559.14	29287.12
559.31	29233.29
559.47	29326.91
559.64	29570.33
559.80	29364.36
559.97	29755.23
560.13	29216.91
560.30	29507.13
560.46	29837.15
560.63	29645.23
560.79	29364.36
560.96	29443.94
561.12	29427.56
561.29	29312.87
561.45	29350.32
561.61	29795.02
561.78	29434.58
561.94	29289.46
562.11	30040.78
562.27	29560.97
562.44	29497.77
562.60	29502.45
562.77	29553.94
562.93	29734.17
563.10	30068.86
563.26	29687.36
563.42	29923.75
563.59	30064.18
563.75	29469.69
563.92	29984.60
564.08	29551.60
564.24	29816.08
564.41	29813.74
564.57	29565.65
564.74	29720.12
564.90	30113.33
565.07	30118.01
565.23	30143.76
565.39	29729.48
565.56	29790.34
565.72	29750.55
565.88	29956.52
566.05	29563.31
566.21	29813.74
566.38	29586.71
566.54	29626.50
566.70	30183.55
566.87	30082.91
567.03	29977.58
567.19	30361.43
567.36	30316.96
567.52	30302.92
567.68	29804.38
567.85	29710.76
568.01	30181.21
568.17	30036.09
568.34	30298.23
568.50	29858.21
568.66	30314.62
568.83	30258.45
568.99	30148.44
569.15	30258.45
569.32	30387.18
569.48	30052.48
569.64	30141.42
569.81	29949.50
569.97	30171.85
570.13	30003.33
570.30	30274.83
570.46	30410.58
570.62	30401.22
570.78	30424.62
570.95	30139.08
571.11	30190.57
571.27	30345.05
571.43	29912.05
571.60	30092.27
571.76	30073.54
571.92	30333.34
572.09	30312.28
572.25	30731.23
572.41	30265.47
572.57	30291.21
572.74	30146.10
572.90	30249.08
573.06	30237.38
573.22	30288.87
573.38	29937.79
573.55	30429.30
573.71	30991.03
573.87	30656.34
574.03	30274.83
574.20	30115.67
574.36	30302.92
574.52	30455.05
574.68	30593.14
574.84	30356.75
575.01	30373.13
575.17	30125.04
575.33	30401.22
575.49	30705.49
575.65	30794.43
575.82	30555.69
575.98	30700.81
576.14	30632.93
576.30	30703.15
576.46	30326.32
576.62	30321.64
576.79	30272.49
576.95	30323.98
577.11	30637.61
577.27	30668.04
577.43	30560.37
577.59	30567.40
577.75	30728.89
577.92	30211.64
578.08	29982.26
578.24	30845.92
578.40	30408.24
578.56	30281.85
578.72	30555.69
578.88	30614.21
579.04	30724.21
579.21	30312.28
579.37	30759.32
579.53	30679.74
579.69	30487.82
579.85	30436.33
580.01	30630.59
580.17	30380.15
580.33	30522.93
580.49	30560.37
580.65	30604.84
580.82	30607.19
580.98	30595.48
581.14	30464.41
581.30	30808.47
581.46	30618.89
581.62	30281.85
581.78	30445.69
581.94	30621.23
582.10	30410.58
582.26	30824.86
582.42	30560.37
582.58	30604.84
582.74	30586.12
582.90	30087.59
583.06	30820.17
583.22	30478.46
583.38	30504.20
583.54	30604.84
583.70	30485.48
583.86	30635.27
584.02	30562.72
584.18	30682.08
584.34	30974.65
584.50	30745.28
584.66	31077.63
584.82	30579.10
584.98	30426.96
585.14	30639.95
585.30	30167.16
585.46	30333.34
585.62	30632.93
585.78	30742.94
585.94	30850.60
586.10	30953.58
586.26	30754.64
586.42	30771.02
586.58	31161.89
586.74	30611.87
586.90	30728.89
587.06	30394.20
587.22	30876.35
587.38	30789.75
587.54	30576.76
587.70	30995.71
587.86	30911.46
588.02	31044.87
588.18	30801.45
588.34	30960.61
588.49	30808.47
588.65	30787.41
588.81	30787.41
588.97	30888.05
589.13	30649.32
589.29	30815.49
589.45	30955.93
589.61	30815.49
589.77	31145.51
589.93	31077.63
590.08	31157.21
590.24	31124.44
590.40	31517.65
590.56	31304.67
590.72	30632.93
590.88	30918.48
591.04	30668.04
591.20	31299.98
591.35	31405.31
591.51	31517.65
591.67	30799.11
591.83	31763.41
591.99	31182.96
592.15	31536.38
592.31	31367.86
592.46	30602.50
592.62	31372.54
592.78	30958.27
592.94	31255.51
593.10	30965.29
593.26	31058.91
593.41	31056.57
593.57	31019.12
593.73	31299.98
593.89	31150.19
594.05	31278.92
594.20	31213.38
594.36	31222.75
594.52	31143.17
594.68	31159.55
594.84	31051.89
594.99	31330.41
595.15	31381.90
595.31	31365.52
595.47	31255.51
595.62	31157.21
595.78	30927.84
595.94	31442.76
596.10	31290.62
596.25	31283.60
596.41	31400.63
596.57	31087.00
596.73	30930.18
596.88	30937.20
597.04	31328.07
597.20	31625.32
597.36	31175.94
597.51	31695.53
597.67	31335.09
597.83	31173.60
597.99	31166.57
598.14	31119.76
598.30	31257.85
598.46	31412.33
598.61	31290.62
598.77	31372.54
598.93	31498.93
599.09	31395.95
599.24	31700.22
599.40	31557.44
599.56	31257.85
599.71	31482.55
599.87	31299.98
600.03	31435.74
600.18	31192.32
600.34	31311.69
600.50	31667.45
600.65	31168.91
600.81	31346.79
600.97	31807.88
601.12	31330.41
601.28	31433.39
601.44	31316.37
601.59	31543.40
601.75	30991.03
601.91	31314.03
602.06	31732.98
602.22	31108.06
602.37	31227.43
602.53	31248.49
602.69	31627.66
602.84	31365.52
603.00	31529.36
603.16	31583.19
603.31	31782.13
603.47	31522.34
603.62	31222.75
603.78	31213.38
603.94	31630.00
604.09	31236.79
604.25	31211.04
604.40	31459.14
604.56	31000.40
604.71	31459.14
604.87	31541.06
605.03	31276.58
605.18	31686.17
605.34	31288.28
605.49	31082.31
605.65	31618.30
605.80	30986.35
605.96	31304.67
606.12	31119.76
606.27	31447.44
606.43	30735.92
606.58	31625.32
606.74	31297.64
606.89	31431.05
607.05	31337.43
607.20	31171.25
607.36	31138.49
607.51	31494.25
607.67	30822.51
607.82	30986.35
607.98	31283.60
608.13	31325.73
608.29	30920.82
608.44	31239.13
608.60	31187.64
608.75	31337.43
608.91	31133.81
609.06	31157.21
609.22	31517.65
609.37	30995.71
609.53	30728.89
609.68	31428.71
609.84	30799.11
609.99	30923.16
610.15	30906.77
610.30	30944.22
610.46	31201.68
610.61	30878.69
610.76	31012.10
610.92	31187.64
611.07	31112.74
611.23	30988.69
611.38	30742.94
611.54	30759.32
611.69	30909.11
611.84	30754.64
612.00	30576.76
612.15	30607.19
612.31	31220.41
612.46	30815.49
612.62	31026.14
612.77	31236.79
612.92	31269.56
613.08	30665.70
613.23	30742.94
613.39	30925.50
613.54	30342.70
613.69	30771.02
613.85	31021.46
614.00	30616.55
614.15	31140.83
614.31	30874.01
614.46	30824.86
614.62	30670.38
614.77	31180.62
614.92	30852.94
615.08	30829.54
615.23	30677.40
615.38	30864.64
615.54	31094.02
615.69	30429.30
615.84	30609.53
616.00	30328.66
616.15	30579.10
616.30	30946.56
616.46	30642.29
616.61	30871.67
616.76	30707.83
616.92	30916.14
617.07	30689.10
617.22	30817.83
617.37	30848.26
617.53	30499.52
617.68	30373.13
617.83	30415.26
617.99	30422.28
618.14	30431.65
618.29	30356.75
618.45	30403.56
618.60	30782.73
618.75	30244.40
618.90	30469.09
619.06	30431.65
619.21	29954.18
619.36	30504.20
619.51	30160.14
619.67	30073.54
619.82	29921.41
619.97	30370.79
620.12	30099.29
620.28	30249.08
620.43	30487.82
620.58	30293.55
620.73	30403.56
620.89	30204.61
621.04	30293.55
621.19	29869.92
621.34	30066.52
621.49	30373.13
621.65	29935.45
621.80	30087.59
621.95	29809.06
622.10	29685.01
622.25	29872.26
622.41	30087.59
622.56	29710.76
622.71	30064.18
622.86	30089.93
623.01	29900.34
623.16	30038.44
623.32	29729.48
623.47	29989.28
623.62	29748.21
623.77	29905.02
623.92	29874.60
624.07	29591.39
624.23	30052.48
624.38	29682.67
624.53	29579.69
624.68	30092.27
624.83	30148.44
624.98	29984.60
625.13	29902.68
625.29	29937.79
625.44	29626.50
625.59	29565.65
625.74	29525.86
625.89	29675.65
626.04	29429.90
626.19	29755.23
626.34	29326.91
626.49	29347.98
626.65	29523.52
626.80	29523.52
626.95	29537.56
627.10	29387.77
627.25	29844.17
627.40	29237.97
627.55	29237.97
627.70	28994.56
627.85	29319.89
628.00	29010.94
628.15	29078.82
628.30	29326.91
628.45	29113.92
628.60	28865.83
628.76	29184.14
628.91	29481.39
629.06	29352.66
629.21	29118.60
629.36	29097.54
629.51	29158.39
629.66	28917.32
629.81	28994.56
629.96	29226.27
630.11	28793.27
630.26	28811.99
630.41	29123.29
630.56	28973.49
630.71	28964.13
630.86	29064.77
631.01	29123.29
631.16	29046.05
631.31	28690.29
631.46	28575.60
631.61	28919.66
631.76	28720.71
631.91	28655.18
632.06	28556.88
632.21	29053.07
632.36	28753.48
632.51	28685.61
632.66	28664.54
632.81	28999.24
632.96	28678.58
633.10	28709.01
633.25	29069.45
633.40	28706.67
633.55	28950.09
633.70	28514.75
633.85	28393.04
634.00	28297.08
634.15	28470.28
634.30	28610.71
634.45	28489.00
634.60	28498.36
634.75	28503.04
634.90	28456.23
635.05	29083.50
635.19	28631.77
635.34	28631.77
635.49	28556.88
635.64	28811.99
635.79	28591.98
635.94	28446.87
636.09	28498.36
636.24	28425.81
636.39	28287.71
636.53	28414.10
636.68	28217.50
636.83	28063.02
636.98	28549.85
637.13	28320.48
637.28	28418.78
637.43	28444.53
637.57	28245.58
637.72	28379.00
637.87	28020.89
638.02	28280.69
638.17	28175.37
638.32	28128.56
638.46	27955.36
638.61	27917.91
638.76	27889.82
638.91	27627.68
639.06	28273.67
639.20	28041.96
639.35	27887.48
639.50	28011.53
639.65	27835.99
639.80	27967.06
639.94	27761.09
640.09	28048.98
640.24	28081.75
640.39	27765.78
640.54	27686.20
640.68	27662.79
640.83	27302.35
640.98	27613.64
641.13	27442.78
641.27	27843.01
641.42	27709.60
641.57	27812.59
641.72	27843.01
641.86	27740.03
642.01	27733.01
642.16	27754.07
642.31	27704.92
642.45	27648.75
642.60	27276.60
642.75	27239.15
642.90	27737.69
643.04	27496.61
643.19	27569.17
643.34	27761.09
643.48	27676.83
643.63	27557.47
643.78	27714.28
643.93	27763.43
644.07	27527.04
644.22	27601.94
644.37	27412.35
644.51	27564.49
644.66	27426.40
644.81	27260.22
644.95	27620.66
645.10	27304.69
645.25	27208.73
645.39	27302.35
645.54	27365.54
645.69	27147.87
645.83	27498.95
645.98	27182.98
646.13	27255.54
646.27	27344.48
646.42	26918.50
646.57	26710.19
646.71	27353.84
646.86	26869.35
647.00	26815.52
647.15	27119.79
647.30	26969.99
647.44	26991.06
647.59	26874.03
647.74	27065.96
647.88	27065.96
648.03	27290.65
648.17	27173.62
648.32	27124.47
648.47	27365.54
648.61	27021.48
648.76	27239.15
648.90	27143.19
649.05	26916.16
649.20	27000.42
649.34	26962.97
649.49	26494.86
649.63	26916.16
649.78	26834.24
649.92	26583.80
650.07	27122.13
650.21	26508.91
650.36	26735.94
650.51	26562.74
650.65	26913.82
650.80	26824.88
650.94	26689.13
651.09	26579.12
651.23	26263.15
651.38	26429.33
651.52	26693.81
651.67	26419.97
651.81	26445.71
651.96	26621.25
652.10	26810.84
652.25	26452.73
652.39	26665.72
652.54	26810.84
652.68	26574.44
652.83	26632.96
652.97	26941.91
653.12	26604.87
653.26	26120.38
653.41	26654.02
653.55	26223.36
653.70	26195.28
653.84	26438.69
653.99	26555.72
654.13	26263.15
654.27	26457.42
654.42	26363.79
654.56	26363.79
654.71	26450.39
654.85	26096.97
655.00	26352.09
655.14	26122.72
655.29	26202.30
655.43	26022.08
655.57	26251.45
655.72	25834.83
655.86	26455.08
656.01	26494.86
656.15	25970.58
656.30	26001.01
656.44	25989.31
656.58	25879.30
656.73	25715.47
656.87	26068.89
657.01	25745.89
657.16	25898.03
657.30	25991.65
657.45	26256.13
657.59	25694.40
657.73	25490.77
657.88	26157.83
658.02	25539.93
658.16	26031.44
658.31	25706.10
658.45	25991.65
658.60	25647.59
658.74	25551.63
658.88	25558.65
659.03	25806.75
659.17	25715.47
659.31	25729.51
659.46	25591.42
659.60	25909.73
659.74	25528.22
659.89	25467.37
660.03	25200.55
660.17	25549.29
660.32	25053.09
660.46	25343.32
660.60	25106.93
660.74	25027.35
660.89	25390.13
661.03	25135.01
661.17	25324.60
661.32	25092.88
661.46	25572.69
661.60	25118.63
661.74	25153.74
661.89	25240.34
662.03	25214.59
662.17	25483.75
662.31	25006.28
662.46	24882.24
662.60	25142.03
662.74	24980.54
662.88	24545.20
663.03	24683.29
663.17	24702.01
663.31	24219.86
663.45	24610.73
663.60	24746.48
663.74	24453.92
663.88	24912.66
664.02	24737.12
664.17	24776.91
664.31	24760.53
664.45	24191.78
664.59	24678.61
664.73	24739.46
664.88	24439.87
665.02	24109.86
665.16	24217.52
665.30	24388.38
665.44	24276.04
665.59	23917.93
665.73	24102.84
665.87	24018.58
666.01	24245.61
666.15	24116.88
666.29	24180.07
666.44	24538.18
666.58	23814.95
666.72	23821.97
666.86	24074.75
667.00	23861.76
667.14	23735.37
667.28	23721.33
667.43	23768.14
667.57	24308.80
667.71	23653.45
667.85	23733.03
667.99	23569.19
668.13	23964.75
668.27	23733.03
668.41	23653.45
668.56	23419.40
668.70	23936.66
668.84	23714.31
668.98	23800.91
669.12	23702.61
669.26	23641.75
669.40	23300.03
669.54	23648.77
669.68	23365.57
669.82	22995.76
669.96	23222.80
670.10	22951.29
670.25	22897.46
670.39	23049.60
670.53	23300.03
670.67	22792.14
670.81	23005.13
670.95	22967.68
671.09	23161.94
671.23	22944.27
671.37	23140.88
671.51	22930.23
671.65	23124.49
671.79	22574.47
671.93	22789.80
672.07	22824.90
672.21	22637.66
672.35	22455.10
672.49	21994.01
672.63	22389.56
672.77	22527.66
672.91	22181.26
673.05	22251.47
673.19	22120.40
673.33	22043.17
673.47	22192.96
673.61	22120.40
673.75	22204.66
673.89	22225.73
674.03	22047.85
674.17	22188.28
674.31	22331.05
674.45	21806.77
674.59	21717.83
674.73	21820.81
674.87	21907.41
675.01	22008.06
675.15	21486.12
675.29	21607.83
675.43	21488.46
675.56	21748.26
675.70	21509.52
675.84	21600.80
675.98	20882.26
676.12	21724.85
676.26	21816.13
676.40	21287.17
676.54	21209.93
676.68	21069.50
676.82	20746.51
676.96	21149.08
677.10	20929.07
677.23	21135.04
677.37	20739.49
677.51	20903.32
677.65	20697.36
677.79	20533.52
677.93	20732.47
678.07	20542.88
678.21	20732.47
678.34	20533.52
678.48	20334.57
678.62	20350.96
678.76	20049.03
678.90	20079.46
679.04	20283.08
679.18	20327.55
679.31	20102.86
679.45	19864.13
679.59	19875.83
679.73	19922.64
679.87	19976.47
680.00	19756.46
680.14	19400.70
680.28	19597.31
680.42	19688.59
680.56	19618.37
680.70	19571.56
680.83	19531.77
680.97	19187.71
681.11	19377.30
681.25	19365.59
681.39	18934.93
681.52	19157.28
681.66	19115.16
681.80	18925.57
681.94	19131.54
682.07	19255.59
682.21	18780.46
682.35	18618.96
682.49	18675.13
682.62	18707.90
682.76	18625.98
682.90	18616.62
683.04	18604.92
683.17	18487.89
683.31	18761.73
683.45	18991.11
683.59	18422.36
683.72	18539.38
683.86	18324.05
684.00	18295.97
684.13	18178.94
684.27	17977.65
684.41	18108.72
684.55	17956.59
684.68	17701.47
684.82	17862.97
684.96	17694.45
685.09	17942.55
685.23	17584.44
685.37	17371.46
685.50	17860.63
685.64	17532.95
685.78	17369.12
685.91	17806.80
686.05	17479.12
686.19	17355.07
686.32	17329.33
686.46	17060.16
686.60	17179.53
686.73	17465.08
686.87	17011.01
687.01	16959.52
687.14	16865.90
687.28	16954.84
687.42	16776.96
687.55	16496.10
687.69	16812.07
687.82	16725.47
687.96	16460.99
688.10	16552.27
688.23	16540.57
688.37	16451.63
688.50	16535.88
688.64	16343.96
688.78	16402.47
688.91	16020.97
689.05	16414.18
689.18	16093.52
689.32	15824.36
689.46	15978.84
689.59	15747.12
689.73	15719.04
689.86	15733.08
690.00	15583.29
690.13	15674.57
690.27	15672.23
690.41	15637.12
690.54	15681.59
690.68	15543.50
690.81	15524.77
690.95	15410.09
691.08	15426.47
691.22	15433.49
691.35	15557.54
691.49	15562.22
691.62	15262.63
691.76	15311.78
691.89	14785.16
692.03	14630.69
692.16	14827.29
692.30	14810.91
692.43	14871.76
692.57	14782.82
692.70	14836.66
692.84	14626.01
692.97	14654.09
693.11	14555.79
693.24	14698.56
693.38	14401.32
693.51	14452.81
693.65	14518.34
693.78	14307.69
693.92	14401.32
694.05	14286.63
694.19	14148.54
694.32	14143.86
694.45	14136.84
694.59	13902.78
694.72	13750.65
694.86	13673.41
694.99	13741.29
695.13	13984.70
695.26	13556.38
695.39	13762.35
695.53	13469.78
695.66	13825.54
695.80	13547.02
695.93	13638.30
696.07	13525.96
696.20	13504.89
696.33	13343.39
696.47	13212.32
696.60	13408.93
696.73	13359.78
696.87	13209.98
697.00	12894.01
697.14	13158.49
697.27	12828.48
697.40	12727.83
697.54	12936.14
697.67	12692.73
697.80	12549.95
697.94	12737.20
698.07	12624.85
698.21	12383.77
698.34	12442.29
698.47	12241.00
698.61	12524.21
698.74	12519.53
698.87	12416.54
699.01	12020.99
699.14	12287.81
699.27	11992.90
699.40	12189.51
699.54	11964.82
699.67	11939.07
699.80	11805.66
699.94	11967.16
700.07	11721.40
700.20	11765.87
700.34	11557.57
700.47	11482.67
700.60	11918.01
700.73	11440.54
700.87	11492.03
701.00	11372.66
701.13	11676.93
701.26	11712.04
701.40	11452.24
701.53	11335.21
701.66	11440.54
701.79	11499.05
701.93	11391.39
702.06	11307.13
702.19	11124.57
702.32	10810.93
702.46	11098.82
702.59	10895.19
702.72	10703.27
702.85	11101.16
702.99	10839.02
703.12	10775.83
703.25	10785.19
703.38	10745.40
703.51	10771.15
703.65	10827.32
703.78	10471.56
703.91	10686.89
704.04	10520.71
704.17	10614.33
704.31	10410.70
704.44	10370.91
704.57	10214.10
704.70	9958.98
704.83	10113.45
704.96	10057.28
705.10	9813.87
705.23	10040.90
>>>>>End Processed Spectral Data<<<<<
