SpectraSuite Data File
++++++++++++++++++++++++++++++++++++
Date: Fri Oct 18 13:58:19 GMT-05:00 2013
User: bianchi
Dark Spectrum Present: No
Reference Spectrum Present: No
Number of Sampled Component Spectra: 1
Spectrometers: USB2+H05261
Integration Time (usec): 50000 (USB2+H05261)
Spectra Averaged: 1 (USB2+H05261)
Boxcar Smoothing: 0 (USB2+H05261)
Correct for Electrical Dark: No (USB2+H05261)
Strobe/Lamp Enabled: No (USB2+H05261)
Correct for Detector Non-linearity: No (USB2+H05261)
Correct for Stray Light: No (USB2+H05261)
Number of Pixels in Processed Spectrum: 2048
>>>>>Begin Processed Spectral Data<<<<<
365.73	0.00
365.92	0.00
366.12	0.00
366.32	0.00
366.52	0.00
366.72	0.00
366.91	0.00
367.11	0.00
367.31	0.00
367.51	0.00
367.70	0.00
367.90	0.00
368.10	0.00
368.30	0.00
368.49	0.00
368.69	0.00
368.89	0.00
369.09	0.00
369.28	0.00
369.48	0.00
369.68	0.00
369.87	0.00
370.07	0.00
370.27	0.00
370.47	0.00
370.66	58.51
370.86	131.07
371.06	79.58
371.25	173.20
371.45	170.86
371.65	203.63
371.84	168.52
372.04	173.20
372.24	234.05
372.44	180.22
372.63	161.50
372.83	241.08
373.03	266.82
373.22	259.80
373.42	229.37
373.62	196.60
373.81	234.05
374.01	227.03
374.21	236.39
374.40	220.01
374.60	205.97
374.79	255.12
374.99	177.88
375.19	255.12
375.38	271.50
375.58	231.71
375.78	227.03
375.97	248.10
376.17	262.14
376.37	304.27
376.56	273.84
376.76	273.84
376.95	248.10
377.15	259.80
377.35	283.20
377.54	248.10
377.74	257.46
377.93	367.46
378.13	194.26
378.33	330.02
378.52	322.99
378.72	355.76
378.91	325.33
379.11	283.20
379.31	273.84
379.50	273.84
379.70	315.97
379.89	330.02
380.09	315.97
380.28	290.23
380.48	269.16
380.68	327.68
380.87	318.31
381.07	311.29
381.26	381.51
381.46	325.33
381.65	322.99
381.85	304.27
382.04	283.20
382.24	337.04
382.43	301.93
382.63	210.65
382.83	315.97
383.02	278.52
383.22	407.25
383.41	341.72
383.61	330.02
383.80	374.49
384.00	248.10
384.19	374.49
384.39	320.65
384.58	393.21
384.78	346.40
384.97	367.46
385.17	341.72
385.36	325.33
385.56	381.51
385.75	409.59
385.95	463.43
386.14	379.17
386.34	447.04
386.53	311.29
386.72	358.10
386.92	423.64
387.11	468.11
387.31	379.17
387.50	414.27
387.70	411.93
387.89	540.66
388.09	442.36
388.28	493.85
388.48	395.55
388.67	503.22
388.86	456.40
389.06	531.30
389.25	433.00
389.45	437.68
389.64	528.96
389.84	507.90
390.03	482.15
390.22	477.47
390.42	440.02
390.61	461.09
390.81	484.49
391.00	526.62
391.19	587.47
391.39	514.92
391.58	531.30
391.78	468.11
391.97	498.53
392.16	554.71
392.36	587.47
392.55	521.94
392.75	566.41
392.94	510.24
393.13	482.15
393.33	589.82
393.52	589.82
393.71	552.37
393.91	582.79
394.10	610.88
394.29	645.99
394.49	685.78
394.68	610.88
394.88	587.47
395.07	585.13
395.26	636.63
395.46	615.56
395.65	636.63
395.84	617.90
396.04	702.16
396.23	643.65
396.42	624.92
396.62	561.73
396.81	620.24
397.00	664.71
397.19	655.35
397.39	683.44
397.58	734.93
397.77	746.63
397.97	676.41
398.16	711.52
398.35	660.03
398.55	744.29
398.74	699.82
398.93	702.16
399.12	716.20
399.32	690.46
399.51	751.31
399.70	688.12
399.90	730.25
400.09	767.70
400.28	805.14
400.47	690.46
400.67	798.12
400.86	765.36
401.05	711.52
401.24	760.67
401.44	821.53
401.63	842.59
401.82	828.55
402.01	791.10
402.21	807.48
402.40	732.59
402.59	809.83
402.78	784.08
402.97	882.38
403.17	844.93
403.36	816.85
403.55	894.08
403.74	870.68
403.93	891.74
404.13	954.94
404.32	875.36
404.51	863.66
404.70	985.37
404.89	938.55
405.09	966.64
405.28	938.55
405.47	947.92
405.66	959.62
405.85	929.19
406.05	915.15
406.24	945.58
406.43	1015.79
406.62	1036.86
406.81	1032.18
407.00	987.71
407.20	931.53
407.39	1029.84
407.58	1041.54
407.77	1097.71
407.96	1046.22
408.15	1041.54
408.34	1121.12
408.54	1064.94
408.73	1104.73
408.92	1090.69
409.11	1170.27
409.30	1153.88
409.49	1057.92
409.68	1172.61
409.87	1174.95
410.07	1268.57
410.26	1165.59
410.45	1132.82
410.64	1214.74
410.83	1165.59
411.02	1238.14
411.21	1259.21
411.40	1212.40
411.59	1256.87
411.78	1235.80
411.98	1306.02
412.17	1287.29
412.36	1256.87
412.55	1266.23
412.74	1336.45
412.93	1397.30
413.12	1350.49
413.31	1387.94
413.50	1371.55
413.69	1357.51
413.88	1423.05
414.07	1479.22
414.26	1448.79
414.45	1453.47
414.64	1359.85
414.83	1511.99
415.02	1462.83
415.22	1469.86
415.41	1540.07
415.60	1509.65
415.79	1598.59
415.98	1533.05
416.17	1633.69
416.36	1614.97
416.55	1591.56
416.74	1720.29
416.93	1593.90
417.12	1701.57
417.31	1762.42
417.50	1717.95
417.69	1783.49
417.88	1769.44
418.07	1734.34
418.26	1746.04
418.45	1837.32
418.64	1689.87
418.83	1788.17
419.02	1804.55
419.21	1809.23
419.39	1834.98
419.58	1748.38
419.77	1834.98
419.96	1825.62
420.15	1919.24
420.34	1877.11
420.53	1944.99
420.72	1947.33
420.91	1982.43
421.10	2010.52
421.29	1998.82
421.48	1933.28
421.67	1961.37
421.86	1898.17
422.05	2017.54
422.24	1994.14
422.43	1900.52
422.61	1959.03
422.80	2001.16
422.99	1907.54
423.18	2038.61
423.37	2040.95
423.56	2076.06
423.75	2043.29
423.94	2012.86
424.13	1907.54
424.32	1940.30
424.50	2047.97
424.69	2148.61
424.88	2136.91
425.07	2050.31
425.26	1842.00
425.45	2033.93
425.64	2097.12
425.83	2087.76
426.01	2008.18
426.20	2040.95
426.39	1998.82
426.58	1961.37
426.77	2165.00
426.96	2195.42
427.15	2073.71
427.33	2122.87
427.52	2230.53
427.71	2146.27
427.90	2165.00
428.09	2235.21
428.28	2239.89
428.46	2211.81
428.65	2246.91
428.84	2279.68
429.03	2389.69
429.22	2169.68
429.40	2228.19
429.59	2300.75
429.78	2153.29
429.97	2244.57
430.16	2312.45
430.34	2347.56
430.53	2354.58
430.72	2410.75
430.91	2307.77
431.10	2291.38
431.28	2399.05
431.47	2356.92
431.66	2485.65
431.85	2363.94
432.03	2375.64
432.22	2408.41
432.41	2513.74
432.60	2583.95
432.79	2576.93
432.97	2523.10
433.16	2448.20
433.35	2546.50
433.54	2459.90
433.72	2597.99
433.91	2415.43
434.10	2506.71
434.28	2539.48
434.47	2448.20
434.66	2509.05
434.85	2635.44
435.03	2574.59
435.22	2567.57
435.41	2661.19
435.59	2633.10
435.78	2464.58
435.97	2656.51
436.16	2649.49
436.34	2597.99
436.53	2698.64
436.72	2736.09
436.90	2672.89
437.09	2815.66
437.28	2626.08
437.46	2771.19
437.65	2754.81
437.84	2787.58
438.02	2759.49
438.21	2670.55
438.40	2719.70
438.58	2878.86
438.77	2946.73
438.96	2970.14
439.14	2909.29
439.33	3042.70
439.52	3075.46
439.70	2963.12
439.89	2902.26
440.08	2916.31
440.26	3112.91
440.45	3096.53
440.63	2988.86
440.82	3148.02
441.01	3136.32
441.19	3281.43
441.38	3124.62
441.57	3279.09
441.75	3251.00
441.94	3197.17
442.12	3258.03
442.31	3304.84
442.50	3363.35
442.68	3295.47
442.87	3295.47
443.05	3288.45
443.24	3379.73
443.43	3414.84
443.61	3363.35
443.80	3358.67
443.98	3393.78
444.17	3290.79
444.35	3494.42
444.54	3433.57
444.73	3492.08
444.91	3372.71
445.10	3447.61
445.28	3389.10
445.47	3496.76
445.65	3510.80
445.84	3538.89
446.02	3478.04
446.21	3501.44
446.39	3517.83
446.58	3508.46
446.77	3545.91
446.95	3569.32
447.14	3471.01
447.32	3517.83
447.51	3566.98
447.69	3555.27
447.88	3588.04
448.06	3555.27
448.25	3672.30
448.43	3543.57
448.62	3517.83
448.80	3487.40
448.99	3595.06
449.17	3613.79
449.36	3618.47
449.54	3719.11
449.73	3606.77
449.91	3707.41
450.10	3702.73
450.28	3794.01
450.46	3786.99
450.65	3672.30
450.83	3840.82
451.02	3700.39
451.20	3892.31
451.39	3801.03
451.57	3896.99
451.76	3740.18
451.94	3801.03
452.13	3892.31
452.31	3915.72
452.49	3882.95
452.68	3831.46
452.86	3822.09
453.05	3885.29
453.23	4028.06
453.42	3889.97
453.60	3978.91
453.78	3941.46
453.97	3920.40
454.15	3857.20
454.34	3859.54
454.52	4105.30
454.70	4025.72
454.89	4121.68
455.07	4016.36
455.26	4091.26
455.44	4184.88
455.62	4058.49
455.81	4032.74
455.99	4093.60
456.17	4037.42
456.36	4107.64
456.54	4175.52
456.73	4341.69
456.91	4458.72
457.09	4344.03
457.28	4444.68
457.46	4276.16
457.64	4404.89
457.83	4311.27
458.01	4299.56
458.19	4540.64
458.38	4437.66
458.56	4463.40
458.74	4332.33
458.93	4369.78
459.11	4435.32
459.29	4465.74
459.48	4484.47
459.66	4512.55
459.84	4683.41
460.03	4657.67
460.21	4594.47
460.39	4510.21
460.57	4535.96
460.76	4744.27
460.94	4786.40
461.12	4683.41
461.31	4601.49
461.49	4737.24
461.67	4657.67
461.85	4746.61
462.04	4739.58
462.22	4816.82
462.40	4858.95
462.59	4858.95
462.77	4713.84
462.95	4819.16
463.13	4716.18
463.32	4889.38
463.50	4999.38
463.68	4844.91
463.86	5022.79
464.05	4908.10
464.23	4741.93
464.41	4983.00
464.59	4901.08
464.78	5015.77
464.96	4835.55
465.14	4884.70
465.32	4999.38
465.50	5022.79
465.69	4945.55
465.87	5013.43
466.05	5046.20
466.23	5053.22
466.41	5081.30
466.60	5177.26
466.78	5004.07
466.96	5198.33
467.14	5078.96
467.32	5121.09
467.51	5369.19
467.69	5067.26
467.87	5083.64
468.05	5245.14
468.23	5172.58
468.41	5100.03
468.60	5142.16
468.78	5408.98
468.96	5181.95
469.14	5203.01
469.32	5268.55
469.50	5013.43
469.69	5284.93
469.87	5474.51
470.05	5600.90
470.23	5446.43
470.41	5467.49
470.59	5448.77
470.77	5446.43
470.95	5481.53
471.14	5523.66
471.32	5549.41
471.50	5767.08
471.68	5692.18
471.86	5678.14
472.04	5643.03
472.22	5748.36
472.40	5621.97
472.58	5696.86
472.77	5755.38
472.95	5799.85
473.13	6061.99
473.31	5980.07
473.49	6083.05
473.67	6080.71
473.85	5933.26
474.03	6033.90
474.21	5977.73
474.39	6127.52
474.57	6171.99
474.75	6256.25
474.93	6307.74
475.12	6141.57
475.30	6253.91
475.48	6157.95
475.66	6305.40
475.84	6181.35
476.02	6368.60
476.20	6541.80
476.38	6429.45
476.56	6600.31
476.74	6621.38
476.92	6604.99
477.10	6558.18
477.28	6764.15
477.46	6602.65
477.64	6743.08
477.82	6871.81
478.00	7075.44
478.18	6895.22
478.36	7091.82
478.54	7157.36
478.72	7068.42
478.90	7379.71
479.08	7337.58
479.26	7192.47
479.44	7208.85
479.62	7414.82
479.80	7466.31
479.98	7379.71
480.16	7473.33
480.34	7515.46
480.52	7478.01
480.70	7651.21
480.88	7637.17
481.06	7723.77
481.24	7686.32
481.41	7859.52
481.59	7976.55
481.77	8182.51
481.95	7995.27
482.13	8002.29
482.31	8114.64
482.49	8234.00
482.67	8329.97
482.85	8439.97
483.03	8479.76
483.21	8643.60
483.39	8428.27
483.57	8379.12
483.74	8725.52
483.92	8816.80
484.10	8861.27
484.28	8947.87
484.46	9076.60
484.64	9198.31
484.82	8950.21
485.00	9315.33
485.18	9390.23
485.35	9504.92
485.53	9511.94
485.71	9348.10
485.89	9617.26
486.07	9579.81
486.25	9755.35
486.43	9734.29
486.61	9830.25
486.78	9841.95
486.96	10031.54
487.14	10317.08
487.32	10045.58
487.50	10284.31
487.68	10303.04
487.85	10487.94
488.03	10609.65
488.21	10743.06
488.39	10712.63
488.57	10588.58
488.75	10813.28
488.92	10862.43
489.10	10883.49
489.28	10995.84
489.46	11253.30
489.64	10913.92
489.81	11463.94
489.99	11255.64
490.17	11330.53
490.35	11569.27
490.53	11356.28
490.70	11815.02
490.88	11632.46
491.06	11857.15
491.24	11908.65
491.41	11793.96
491.59	11981.20
491.77	12053.76
491.95	12168.45
492.13	12081.85
492.30	12505.48
492.48	12535.91
492.66	12484.42
492.84	12456.33
493.01	12681.02
493.19	12711.45
493.37	12842.52
493.54	12753.58
493.72	13214.66
493.90	12861.24
494.08	12992.31
494.25	12999.34
494.43	13060.19
494.61	13516.59
494.79	13507.23
494.96	13097.64
495.14	13408.93
495.32	13551.70
495.49	13692.13
495.67	13701.50
495.85	13975.34
496.02	14099.39
496.20	14010.45
496.38	14015.13
496.55	13970.66
496.73	14401.32
496.91	14197.69
497.09	14207.05
497.26	14356.85
497.44	14380.25
497.62	14609.62
497.79	14621.33
497.97	14548.77
498.14	14789.85
498.32	14843.68
498.50	14888.15
498.67	14925.60
498.85	14993.47
499.03	15108.16
499.20	14927.94
499.38	15061.35
499.56	15208.80
499.73	15386.68
499.91	15517.75
500.08	15934.37
500.26	14981.77
500.44	15534.14
500.61	15360.94
500.79	15536.48
500.97	15889.90
501.14	15957.77
501.32	15946.07
501.49	16063.10
501.67	15791.59
501.84	15953.09
502.02	16114.59
502.20	16063.10
502.37	16526.52
502.55	16219.91
502.72	16475.03
502.90	16418.86
503.07	16465.67
503.25	16388.43
503.43	16535.88
503.60	16723.13
503.78	16486.73
503.95	16657.59
504.13	16594.40
504.30	16713.77
504.48	16720.79
504.65	16709.08
504.83	17006.33
505.01	17216.98
505.18	17163.15
505.36	17472.10
505.53	17048.46
505.71	16910.37
505.88	17144.42
506.06	17397.20
506.23	17570.40
506.41	17172.51
506.58	17673.39
506.76	17369.12
506.93	17476.78
507.11	17720.20
507.28	17778.71
507.46	17776.37
507.63	17806.80
507.81	17926.16
507.98	17823.18
508.16	18038.51
508.33	17895.74
508.50	18164.90
508.68	17996.38
508.85	18218.73
509.03	18314.69
509.20	18466.83
509.38	18431.72
509.55	18623.64
509.73	18579.17
509.90	18307.67
510.08	18373.21
510.25	18508.96
510.42	18485.55
510.60	18740.67
510.77	18932.59
510.95	19234.52
511.12	18808.54
511.30	18778.12
511.47	19000.47
511.64	18824.93
511.82	19236.86
511.99	18934.93
512.17	19232.18
512.34	19339.85
512.51	19213.46
512.69	19077.71
512.86	19482.62
513.04	19283.67
513.21	19548.15
513.38	19538.79
513.56	19747.10
513.73	19482.62
513.90	19613.69
514.08	19569.22
514.25	19836.04
514.43	19704.97
514.60	19887.53
514.77	19786.89
514.95	19681.56
515.12	19829.02
515.29	19833.70
515.47	20107.54
515.64	20360.32
515.81	20498.41
515.99	20294.79
516.16	20299.47
516.33	20271.38
516.51	20486.71
516.68	20414.15
516.85	20142.65
517.03	20723.10
517.20	20524.16
517.37	20231.59
517.54	20570.97
517.72	20496.07
517.89	20683.31
518.06	20673.95
518.24	20496.07
518.41	20673.95
518.58	20879.92
518.75	21001.63
518.93	21270.79
519.10	21006.31
519.27	21326.96
519.45	20821.41
519.62	21216.96
519.79	21111.63
519.96	21198.23
520.14	21488.46
520.31	21357.39
520.48	21130.36
520.65	21263.77
520.83	21530.59
521.00	21605.49
521.17	21816.13
521.34	21376.11
521.52	21638.25
521.69	21628.89
521.86	21928.48
522.03	21893.37
522.20	21748.26
522.38	21682.72
522.55	21884.01
522.72	21879.33
522.89	21900.39
523.07	22342.75
523.24	22300.62
523.41	22380.20
523.58	22078.27
523.75	22396.59
523.92	22085.30
524.10	22354.46
524.27	22246.79
524.44	22735.96
524.61	22766.39
524.78	22742.99
524.96	22520.63
525.13	22476.16
525.30	22593.19
525.47	22621.28
525.64	23075.34
525.81	22892.78
525.98	23065.98
526.16	23009.81
526.33	22752.35
526.50	22841.29
526.67	22918.53
526.84	22974.70
527.01	22970.02
527.18	22754.69
527.36	23400.68
527.53	23398.34
527.70	23484.94
527.87	23616.01
528.04	23396.00
528.21	23325.78
528.38	23536.43
528.55	23679.20
528.72	23330.46
528.89	23384.29
529.07	23388.97
529.24	23688.56
529.41	23695.58
529.58	23379.61
529.75	23630.05
529.92	23456.85
530.09	23742.39
530.26	23915.59
530.43	23817.29
530.60	23569.19
530.77	23796.23
530.94	24037.30
531.11	23718.99
531.28	23737.71
531.46	23978.79
531.63	24257.31
531.80	24404.77
531.97	24100.50
532.14	24290.08
532.31	24187.10
532.48	24489.03
532.65	24070.07
532.82	24353.27
532.99	24407.11
533.16	24325.19
533.33	24355.61
533.50	24521.79
533.67	24505.41
533.84	24381.36
534.01	24620.10
534.18	24306.46
534.35	24807.34
534.52	24517.11
534.69	24744.14
534.86	24870.53
535.03	24758.19
535.20	24709.04
535.37	24945.43
535.54	24826.06
535.71	24243.27
535.88	24940.75
536.05	24858.83
536.22	25216.93
536.38	25078.84
536.55	25240.34
536.72	25284.81
536.89	24776.91
537.06	24833.08
537.23	25256.72
537.40	24964.15
537.57	24603.71
537.74	25345.66
537.91	25738.87
538.08	25706.10
538.25	25261.40
538.42	25460.35
538.59	25486.09
538.75	25542.27
538.92	25497.80
539.09	25441.62
539.26	25830.15
539.43	25628.87
539.60	25710.78
539.77	25975.27
539.94	25947.18
540.11	25703.76
540.28	25640.57
540.44	25771.64
540.61	25844.20
540.78	25343.32
540.95	25930.80
541.12	25675.68
541.29	25928.45
541.46	26125.06
541.62	25865.26
541.79	25944.84
541.96	25544.61
542.13	25788.02
542.30	26192.94
542.47	26448.05
542.63	26450.39
542.80	26160.17
542.97	26356.77
543.14	26558.06
543.31	26267.83
543.48	26471.46
543.64	26485.50
543.81	26768.71
543.98	26766.37
544.15	26642.32
544.32	26904.46
544.48	26572.10
544.65	26766.37
544.82	26553.38
544.99	26721.90
545.16	26867.01
545.32	26316.98
545.49	26859.99
545.66	26871.69
545.83	27470.87
546.00	27005.10
546.16	26696.15
546.33	26738.28
546.50	26504.23
546.67	26965.31
546.83	26726.58
547.00	26672.74
547.17	27000.42
547.34	26796.79
547.50	27505.98
547.67	27335.12
547.84	27239.15
548.00	27358.52
548.17	27374.91
548.34	27318.73
548.51	27426.40
548.67	27342.14
548.84	27489.59
549.01	27213.41
549.18	27372.57
549.34	27438.10
549.51	27503.64
549.68	27564.49
549.84	27449.80
550.01	27690.88
550.18	27555.13
550.34	27704.92
550.51	27946.00
550.68	27772.80
550.84	27501.29
551.01	27704.92
551.18	27742.37
551.34	27300.01
551.51	27826.63
551.68	27838.33
551.84	28016.21
552.01	27964.72
552.18	27798.54
552.34	27805.56
552.51	28187.07
552.68	27955.36
552.84	28137.92
553.01	27946.00
553.18	27990.47
553.34	28166.01
553.51	28112.17
553.67	28500.70
553.84	28486.66
554.01	28435.17
554.17	28023.23
554.34	28201.11
554.51	28315.80
554.67	28533.47
554.84	28063.02
555.00	28224.52
555.17	28566.24
555.33	28982.85
555.50	28498.36
555.67	28095.79
555.83	28128.56
556.00	28233.88
556.16	28458.57
556.33	28664.54
556.50	28453.89
556.66	28765.18
556.83	28582.62
556.99	28704.33
557.16	28631.77
557.32	28783.91
557.49	28587.30
557.65	28493.68
557.82	28348.57
557.98	28547.51
558.15	28868.17
558.32	28591.98
558.48	28748.80
558.65	28680.92
558.81	28922.00
558.98	28664.54
559.14	28910.30
559.31	28699.65
559.47	28657.52
559.64	28706.67
559.80	28676.24
559.97	29233.29
560.13	28526.45
560.30	29111.58
560.46	28596.67
560.63	28882.21
560.79	29216.91
560.96	28856.46
561.12	28692.63
561.29	29015.62
561.45	29088.18
561.61	29118.60
561.78	28992.22
561.94	29205.20
562.11	29123.29
562.27	29083.50
562.44	29020.30
562.60	29228.61
562.77	29139.67
562.93	28919.66
563.10	29198.18
563.26	29275.42
563.42	29516.50
563.59	29247.33
563.75	29060.09
563.92	29296.49
564.08	29071.79
564.24	29289.46
564.41	28996.90
564.57	29273.08
564.74	29074.13
564.90	29596.07
565.07	29694.38
565.23	29188.82
565.39	29235.63
565.56	29523.52
565.72	29457.98
565.88	29582.03
566.05	29331.59
566.21	29261.38
566.38	29125.63
566.54	29427.56
566.70	29495.43
566.87	29628.84
567.03	29675.65
567.19	29600.76
567.36	29766.93
567.52	29263.72
567.68	29549.26
567.85	29259.04
568.01	29860.55
568.17	29268.40
568.34	29532.88
568.50	29486.07
568.66	29394.79
568.83	29778.64
568.99	29689.70
569.15	29818.42
569.32	29397.13
569.48	29289.46
569.64	29465.00
569.81	29783.32
569.97	29406.49
570.13	29268.40
570.30	29184.14
570.46	29935.45
570.62	29450.96
570.78	29420.53
570.95	29420.53
571.11	29673.31
571.27	29570.33
571.43	29450.96
571.60	29441.60
571.76	29589.05
571.92	29333.93
572.09	29727.14
572.25	29759.91
572.41	29923.75
572.57	29589.05
572.74	29834.81
572.90	29914.39
573.06	29511.81
573.22	29502.45
573.38	29605.44
573.55	29542.24
573.71	29773.95
573.87	29769.27
574.03	29546.92
574.20	29902.68
574.36	29539.90
574.52	29876.94
574.68	29724.80
574.84	29619.48
575.01	29731.83
575.17	30064.18
575.33	29549.26
575.49	29898.00
575.65	29748.21
575.82	30277.17
575.98	29654.59
576.14	29685.01
576.30	30029.07
576.46	29542.24
576.62	30110.99
576.79	30040.78
576.95	29722.46
577.11	29752.89
577.27	29947.15
577.43	30033.75
577.59	30068.86
577.75	30082.91
577.92	29970.56
578.08	29570.33
578.24	30012.69
578.40	30022.05
578.56	29687.36
578.72	30045.46
578.88	30340.36
579.04	29937.79
579.21	30003.33
579.37	29804.38
579.53	30223.34
579.69	29668.63
579.85	29771.61
580.01	29958.86
580.17	29717.78
580.33	29942.47
580.49	29750.55
580.65	30174.19
580.82	30003.33
580.98	29809.06
581.14	29935.45
581.30	30038.44
581.46	29905.02
581.62	29600.76
581.78	29738.85
581.94	30029.07
582.10	30038.44
582.26	29963.54
582.42	29624.16
582.58	30483.14
582.74	29846.51
582.90	30148.44
583.06	30118.01
583.22	29909.71
583.38	30312.28
583.54	30033.75
583.70	29713.10
583.86	29977.58
584.02	30036.09
584.18	30534.63
584.34	30167.16
584.50	30192.91
584.66	29935.45
584.82	30075.88
584.98	30218.66
585.14	30185.89
585.30	29965.88
585.46	30176.53
585.62	29727.14
585.78	30118.01
585.94	30298.23
586.10	30473.78
586.26	29869.92
586.42	30441.01
586.58	30389.52
586.74	30433.99
586.90	29963.54
587.06	30164.82
587.22	30113.33
587.38	30235.04
587.54	30492.50
587.70	30721.87
587.86	30223.34
588.02	30225.68
588.18	30836.56
588.34	29989.28
588.49	30309.94
588.65	30188.23
588.81	29912.05
588.97	30209.29
589.13	30073.54
589.29	30246.74
589.45	30008.01
589.61	30616.55
589.77	30398.88
589.93	30375.47
590.08	30515.90
590.24	30663.36
590.40	30356.75
590.56	30836.56
590.72	30401.22
590.88	30471.43
591.04	30242.06
591.20	30876.35
591.35	30712.51
591.51	30656.34
591.67	30661.02
591.83	30497.18
591.99	30623.57
592.15	30485.48
592.31	30462.07
592.46	30164.82
592.62	30293.55
592.78	30260.79
592.94	30649.32
593.10	30197.59
593.26	30522.93
593.41	30455.05
593.57	30663.36
593.73	30462.07
593.89	30649.32
594.05	30707.83
594.20	30803.79
594.36	30707.83
594.52	30501.86
594.68	30298.23
594.84	30307.60
594.99	30836.56
595.15	30801.45
595.31	30756.98
595.47	30525.27
595.62	30738.26
595.78	30649.32
595.94	31075.29
596.10	30572.08
596.25	30508.88
596.41	30082.91
596.57	30684.42
596.73	30789.75
596.88	30438.67
597.04	30686.76
597.20	30771.02
597.36	30405.90
597.51	30637.61
597.67	30483.14
597.83	30721.87
597.99	30579.10
598.14	30567.40
598.30	30492.50
598.46	30609.53
598.61	30682.08
598.77	30616.55
598.93	30696.13
599.09	30934.86
599.24	30976.99
599.40	30558.03
599.56	30410.58
599.71	30480.80
599.87	30756.98
600.03	30780.39
600.18	30267.81
600.34	30761.66
600.50	30890.39
600.65	31023.80
600.81	30698.47
600.97	31197.00
601.12	31037.84
601.28	30866.98
601.44	30635.27
601.59	30572.08
601.75	30857.62
601.91	30895.07
602.06	30778.04
602.22	30719.53
602.37	30749.96
602.53	30885.71
602.69	30768.68
602.84	30602.50
603.00	30501.86
603.16	30920.82
603.31	30349.73
603.47	30665.70
603.62	30986.35
603.78	30658.68
603.94	30553.35
604.09	31168.91
604.25	30499.52
604.40	30675.06
604.56	30714.85
604.71	31016.78
604.87	30485.48
605.03	30827.20
605.18	30607.19
605.34	30656.34
605.49	30518.25
605.65	30293.55
605.80	30309.94
605.96	30782.73
606.12	30740.60
606.27	30529.95
606.43	30799.11
606.58	30733.57
606.74	30256.11
606.89	30548.67
607.05	30815.49
607.20	30646.97
607.36	30684.42
607.51	30661.02
607.67	30443.35
607.82	30099.29
607.98	30251.42
608.13	30387.18
608.29	30433.99
608.44	30773.36
608.60	30501.86
608.75	30522.93
608.91	30497.18
609.06	30340.36
609.22	30972.31
609.37	30541.65
609.53	30132.06
609.68	30403.56
609.84	30185.89
609.99	30480.80
610.15	30092.27
610.30	30368.45
610.46	30045.46
610.61	31033.16
610.76	30354.41
610.92	30628.25
611.07	30270.15
611.23	30068.86
611.38	30569.74
611.54	30345.05
611.69	30415.26
611.84	30096.95
612.00	29769.27
612.15	30036.09
612.31	30396.54
612.46	30457.39
612.62	30272.49
612.77	30326.32
612.92	30492.50
613.08	30316.96
613.23	30466.75
613.39	30237.38
613.54	29792.68
613.69	30178.87
613.85	30169.51
614.00	30029.07
614.15	30373.13
614.31	30370.79
614.46	30298.23
614.62	29933.11
614.77	30225.68
614.92	29984.60
615.08	30249.08
615.23	30153.12
615.38	30000.99
615.54	30000.99
615.69	30075.88
615.84	29668.63
616.00	29797.36
616.15	30050.14
616.30	30136.74
616.46	30082.91
616.61	29914.39
616.76	30022.05
616.92	30221.00
617.07	29979.92
617.22	29986.94
617.37	29488.41
617.53	29790.34
617.68	29867.58
617.83	29685.01
617.99	29610.12
618.14	29998.65
618.29	29631.18
618.45	29776.30
618.60	29570.33
618.75	29848.85
618.90	29954.18
619.06	30038.44
619.21	29469.69
619.36	29827.79
619.51	29530.54
619.67	29577.35
619.82	29593.73
619.97	29465.00
620.12	29387.77
620.28	29633.52
620.43	29830.13
620.58	29591.39
620.73	29724.80
620.89	29647.57
621.04	29809.06
621.19	29415.85
621.34	29680.33
621.49	29350.32
621.65	29614.80
621.80	29743.53
621.95	29207.55
622.10	29261.38
622.25	29111.58
622.41	29125.63
622.56	28952.43
622.71	29364.36
622.86	29582.03
623.01	29394.79
623.16	29347.98
623.32	29158.39
623.47	29532.88
623.62	28772.21
623.77	29420.53
623.92	29156.05
624.07	29095.20
624.23	29043.71
624.38	29310.53
624.53	29046.05
624.68	29355.00
624.83	29284.78
624.98	29214.57
625.13	28823.70
625.29	29177.12
625.44	29118.60
625.59	29149.03
625.74	28814.34
625.89	28966.47
626.04	29130.31
626.19	28854.12
626.34	28650.50
626.49	28741.78
626.65	28936.04
626.80	28870.51
626.95	28713.69
627.10	28704.33
627.25	28814.34
627.40	28713.69
627.55	28643.48
627.70	28577.94
627.85	28210.48
628.00	28355.59
628.15	28556.88
628.30	28460.91
628.45	28491.34
628.60	28393.04
628.76	29177.12
628.91	28535.81
629.06	28769.86
629.21	28456.23
629.36	28510.07
629.51	28570.92
629.66	28318.14
629.81	28285.37
629.96	28182.39
630.11	28158.99
630.26	28367.29
630.41	28280.69
630.56	28432.83
630.71	28276.01
630.86	28357.93
631.01	28144.94
631.16	28484.32
631.31	28247.93
631.46	28154.30
631.61	28301.76
631.76	28196.43
631.91	27744.71
632.06	27948.34
632.21	27749.39
632.36	28276.01
632.51	27791.52
632.66	28173.03
632.81	27840.67
632.96	28334.53
633.10	28102.81
633.25	27882.80
633.40	28311.12
633.55	28018.55
633.70	28268.99
633.85	27803.22
634.00	27812.59
634.15	27967.06
634.30	27943.66
634.45	27651.09
634.60	27995.15
634.75	27960.04
634.90	27812.59
635.05	27868.76
635.19	27857.06
635.34	27796.20
635.49	27793.86
635.64	27763.43
635.79	28023.23
635.94	27946.00
636.09	28210.48
636.24	27777.48
636.39	27695.56
636.53	27611.30
636.68	27601.94
636.83	27971.74
636.98	28025.57
637.13	27864.08
637.28	27543.42
637.43	27597.26
637.57	27711.94
637.72	27243.84
637.87	27653.43
638.02	27627.68
638.17	27491.93
638.32	27522.36
638.46	27517.68
638.61	26881.05
638.76	27014.46
638.91	27145.53
639.06	27424.06
639.20	27316.39
639.35	27243.84
639.50	27597.26
639.65	27295.33
639.80	27466.19
639.94	27697.90
640.09	27503.64
640.24	27496.61
640.39	27044.89
640.54	27229.79
640.68	27346.82
640.83	27168.94
640.98	26918.50
641.13	26906.80
641.27	27119.79
641.42	27056.59
641.57	26904.46
641.72	27594.92
641.86	26869.35
642.01	26960.63
642.16	27026.17
642.31	27161.92
642.45	27005.10
642.60	26721.90
642.75	26525.29
642.90	26436.35
643.04	26628.27
643.19	26775.73
643.34	26740.62
643.48	27124.47
643.63	26852.97
643.78	27007.44
643.93	26604.87
644.07	26766.37
644.22	27021.48
644.37	26991.06
644.51	26925.52
644.66	26932.54
644.81	26965.31
644.95	26759.34
645.10	26845.94
645.25	26574.44
645.39	26867.01
645.54	26665.72
645.69	26808.50
645.83	26754.66
645.98	26478.48
646.13	26988.72
646.27	26611.89
646.42	26895.10
646.57	26855.31
646.71	26892.76
646.86	26572.10
647.00	26719.56
647.15	26214.00
647.30	26293.58
647.44	26471.46
647.59	26614.23
647.74	26387.20
647.88	26401.24
648.03	26197.62
648.17	26607.21
648.32	26286.56
648.47	26331.03
648.61	26246.77
648.76	26609.55
648.90	26508.91
649.05	26286.56
649.20	26286.56
649.34	26260.81
649.49	25907.39
649.63	26338.05
649.78	26127.40
649.92	25937.82
650.07	26352.09
650.21	25818.45
650.36	26045.48
650.51	25722.49
650.65	26080.59
650.80	26368.48
650.94	26008.03
651.09	26143.78
651.23	25937.82
651.38	26221.02
651.52	25872.28
651.67	26118.04
651.81	26071.23
651.96	26225.70
652.10	26012.71
652.25	26209.32
652.39	25839.51
652.54	26045.48
652.68	25764.62
652.83	25886.32
652.97	26073.57
653.12	25795.04
653.26	25773.98
653.41	25958.88
653.55	25736.53
653.70	25649.93
653.84	25490.77
653.99	25759.94
654.13	25450.99
654.27	25645.25
654.42	25603.12
654.56	25783.34
654.71	26047.82
654.85	25493.12
655.00	25846.54
655.14	25614.82
655.29	25546.95
655.43	25612.48
655.57	25523.54
655.72	25439.28
655.86	25500.14
656.01	25472.05
656.15	25305.87
656.30	25422.90
656.44	25628.87
656.58	25427.58
656.73	25404.17
656.87	25266.08
657.01	25305.87
657.16	25532.90
657.30	25298.85
657.45	25233.32
657.59	25343.32
657.73	24973.52
657.88	25329.28
658.02	24943.09
658.16	25020.33
658.31	24858.83
658.45	24744.14
658.60	24594.35
658.74	25104.59
658.88	24910.32
659.03	25003.94
659.17	25177.14
659.31	24699.67
659.46	24947.77
659.60	25135.01
659.74	24996.92
659.89	24954.79
660.03	24950.11
660.17	24446.90
660.32	24584.99
660.46	24774.57
660.60	24372.00
660.74	24531.15
660.89	24540.52
661.03	23948.36
661.17	24285.40
661.32	24507.75
661.46	24718.40
661.60	24800.32
661.74	24828.40
661.89	24306.46
662.03	24425.83
662.17	24582.65
662.31	24613.07
662.46	24500.73
662.60	24517.11
662.74	24430.51
662.88	24212.84
663.03	24156.67
663.17	24058.37
663.31	23737.71
663.45	24332.21
663.60	24044.32
663.74	23941.34
663.88	24013.90
664.02	23875.80
664.17	24187.10
664.31	23805.59
664.45	23733.03
664.59	23964.75
664.73	23927.30
664.88	23934.32
665.02	23611.32
665.16	23601.96
665.30	23484.94
665.44	23683.88
665.59	23529.41
665.73	23496.64
665.87	23414.72
666.01	23513.02
666.15	23644.09
666.29	23620.69
666.44	23239.18
666.58	23491.96
666.72	23379.61
666.86	23316.42
667.00	23833.68
667.14	23183.01
667.28	23365.57
667.43	23082.36
667.57	23278.97
667.71	23047.26
667.85	23271.95
667.99	23110.45
668.13	22965.34
668.27	23009.81
668.41	23091.73
668.56	22888.10
668.70	23175.98
668.84	23051.94
668.98	23213.43
669.12	22850.65
669.26	22993.42
669.40	22960.66
669.54	22539.36
669.68	22682.13
669.82	22808.52
669.96	22583.83
670.10	22375.52
670.25	22766.39
670.39	22265.52
670.53	22457.44
670.67	22115.72
670.81	22654.05
670.95	22427.01
671.09	22054.87
671.23	22558.08
671.37	22368.50
671.51	22651.70
671.65	22656.39
671.79	22604.89
671.93	21848.90
672.07	21984.65
672.21	21671.02
672.35	21998.70
672.49	21839.54
672.63	21790.39
672.77	21706.13
672.91	22026.78
673.05	21818.47
673.19	21752.94
673.33	21778.68
673.47	21687.40
673.61	21750.60
673.75	21689.74
673.89	21612.51
674.03	21642.93
674.17	21687.40
674.31	21500.16
674.45	21380.79
674.59	21364.41
674.73	21231.00
674.87	21472.07
675.01	21596.12
675.15	21156.10
675.29	21160.78
675.43	20807.36
675.56	21057.80
675.70	20952.48
675.84	20858.85
675.98	20563.95
676.12	21123.33
676.26	21390.16
676.40	20950.14
676.54	20772.25
676.68	20903.32
676.82	20367.34
676.96	20620.12
677.10	20397.77
677.23	20407.13
677.37	20163.72
677.51	20304.15
677.65	20369.68
677.79	20044.35
677.93	19845.40
678.07	19971.79
678.21	19875.83
678.34	20023.28
678.48	20098.18
678.62	19822.00
678.76	19566.88
678.90	19819.66
679.04	19571.56
679.18	19571.56
679.31	19756.46
679.45	19236.86
679.59	19218.14
679.73	19304.74
679.87	19075.37
680.00	19019.19
680.14	19056.64
680.28	19110.47
680.42	19138.56
680.56	19442.83
680.70	19222.82
680.83	18850.67
680.97	18941.96
681.11	19058.98
681.25	18963.02
681.39	18913.87
681.52	18775.78
681.66	18658.75
681.80	18670.45
681.94	18707.90
682.07	18600.24
682.21	18293.63
682.35	18455.12
682.49	18253.84
682.62	17893.40
682.76	18420.02
682.90	18380.23
683.04	18452.78
683.17	18153.20
683.31	18298.31
683.45	18064.25
683.59	18178.94
683.72	18192.98
683.86	17771.69
684.00	17881.69
684.13	17942.55
684.27	17638.28
684.41	17413.59
684.55	17343.37
684.68	17193.58
684.82	17469.76
684.96	17319.96
685.09	17233.36
685.23	17231.02
685.37	17415.93
685.50	17240.39
685.64	17123.36
685.78	17160.81
685.91	17266.13
686.05	17287.20
686.19	17123.36
686.32	16901.01
686.46	16783.98
686.60	16580.36
686.73	16662.27
686.87	16690.36
687.01	16252.68
687.14	16540.57
687.28	16168.42
687.42	16095.86
687.55	16191.83
687.69	16163.74
687.82	16210.55
687.96	16264.38
688.10	16105.23
688.23	16287.79
688.37	16079.48
688.50	16032.67
688.64	16013.95
688.78	15840.75
688.91	15686.27
689.05	15562.22
689.18	15433.49
689.32	15426.47
689.46	15482.64
689.59	15744.78
689.73	15543.50
689.86	15274.34
690.00	15293.06
690.13	15372.64
690.27	15250.93
690.41	15337.53
690.54	15098.80
690.68	15023.90
690.81	15080.07
690.95	15386.68
691.08	14949.00
691.22	15047.30
691.35	15042.62
691.49	14841.34
691.62	14829.63
691.76	14745.38
691.89	14768.78
692.03	14197.69
692.16	14078.32
692.30	14361.53
692.43	14225.78
692.57	14384.93
692.70	14422.38
692.84	14246.84
692.97	14190.67
693.11	14078.32
693.24	14106.41
693.38	14209.39
693.51	13968.32
693.65	14225.78
693.78	13949.59
693.92	13797.46
694.05	13715.54
694.19	13797.46
694.32	13561.06
694.45	13687.45
694.59	13544.68
694.72	13399.57
694.86	13310.63
694.99	13214.66
695.13	13256.79
695.26	13266.16
695.39	13303.60
695.53	13268.50
695.66	13121.04
695.80	13053.17
695.93	12952.52
696.07	13233.39
696.20	12987.63
696.33	13062.53
696.47	12982.95
696.60	12809.75
696.73	12697.41
696.87	12875.29
697.00	12601.44
697.14	12704.43
697.27	12168.45
697.40	12566.34
697.54	12514.84
697.67	12482.08
697.80	12362.71
697.94	12149.72
698.07	12215.26
698.21	11925.03
698.34	12086.53
698.47	12425.90
698.61	12084.19
698.74	12241.00
698.87	12149.72
699.01	12084.19
699.14	12058.44
699.27	11679.27
699.40	11702.68
699.54	11466.28
699.67	11686.29
699.80	11534.16
699.94	11765.87
700.07	11564.59
700.20	11421.81
700.34	11229.89
700.47	11211.17
700.60	11428.84
700.73	11033.29
700.87	11234.57
701.00	11283.72
701.13	11084.78
701.26	11094.14
701.40	11180.74
701.53	11269.68
701.66	10977.11
701.79	10986.47
701.93	10986.47
702.06	10916.26
702.19	10609.65
702.32	10621.35
702.46	10656.46
702.59	10534.75
702.72	10607.31
702.85	10389.64
702.99	10420.06
703.12	10195.37
703.25	10410.70
703.38	10485.60
703.51	10296.02
703.65	10284.31
703.78	10352.19
703.91	10340.49
704.04	10202.40
704.17	10298.36
704.31	10162.61
704.44	10162.61
704.57	10319.42
704.70	9877.06
704.83	9682.80
704.96	9619.60
705.10	9776.42
705.23	9870.04
>>>>>End Processed Spectral Data<<<<<
