SpectraSuite Data File
++++++++++++++++++++++++++++++++++++
Date: Fri Oct 18 13:58:41 GMT-05:00 2013
User: bianchi
Dark Spectrum Present: No
Reference Spectrum Present: No
Number of Sampled Component Spectra: 1
Spectrometers: USB2+H05261
Integration Time (usec): 50000 (USB2+H05261)
Spectra Averaged: 1 (USB2+H05261)
Boxcar Smoothing: 0 (USB2+H05261)
Correct for Electrical Dark: No (USB2+H05261)
Strobe/Lamp Enabled: No (USB2+H05261)
Correct for Detector Non-linearity: No (USB2+H05261)
Correct for Stray Light: No (USB2+H05261)
Number of Pixels in Processed Spectrum: 2048
>>>>>Begin Processed Spectral Data<<<<<
365.73	0.00
365.92	0.00
366.12	0.00
366.32	0.00
366.52	0.00
366.72	0.00
366.91	0.00
367.11	0.00
367.31	0.00
367.51	0.00
367.70	0.00
367.90	0.00
368.10	0.00
368.30	0.00
368.49	0.00
368.69	0.00
368.89	0.00
369.09	0.00
369.28	0.00
369.48	0.00
369.68	0.00
369.87	0.00
370.07	0.00
370.27	0.00
370.47	44.47
370.66	168.52
370.86	110.01
371.06	138.09
371.25	126.39
371.45	154.48
371.65	184.90
371.84	173.20
372.04	147.45
372.24	166.18
372.44	205.97
372.63	138.09
372.83	257.46
373.03	203.63
373.22	227.03
373.42	227.03
373.62	220.01
373.81	210.65
374.01	264.48
374.21	301.93
374.40	241.08
374.60	276.18
374.79	245.76
374.99	255.12
375.19	224.69
375.38	205.97
375.58	250.44
375.78	257.46
375.97	222.35
376.17	304.27
376.37	334.70
376.56	245.76
376.76	266.82
376.95	285.55
377.15	276.18
377.35	266.82
377.54	330.02
377.74	278.52
377.93	236.39
378.13	264.48
378.33	308.95
378.52	257.46
378.72	234.05
378.91	191.92
379.11	255.12
379.31	304.27
379.50	301.93
379.70	299.59
379.89	348.74
380.09	234.05
380.28	348.74
380.48	210.65
380.68	224.69
380.87	358.10
381.07	332.36
381.26	322.99
381.46	358.10
381.65	334.70
381.85	299.59
382.04	318.31
382.24	383.85
382.43	318.31
382.63	245.76
382.83	344.06
383.02	362.78
383.22	402.57
383.41	341.72
383.61	341.72
383.80	404.91
384.00	365.12
384.19	306.61
384.39	365.12
384.58	374.49
384.78	383.85
384.97	416.62
385.17	376.83
385.36	386.19
385.56	421.30
385.75	440.02
385.95	327.68
386.14	395.55
386.34	367.46
386.53	358.10
386.72	395.55
386.92	360.44
387.11	402.57
387.31	407.25
387.50	500.87
387.70	397.89
387.89	444.70
388.09	416.62
388.28	400.23
388.48	404.91
388.67	465.77
388.86	479.81
389.06	465.77
389.25	414.27
389.45	442.36
389.64	482.15
389.84	440.02
390.03	461.09
390.22	491.51
390.42	561.73
390.61	437.68
390.81	440.02
391.00	456.40
391.19	456.40
391.39	514.92
391.58	477.47
391.78	503.22
391.97	580.45
392.16	582.79
392.36	580.45
392.55	486.83
392.75	505.56
392.94	554.71
393.13	601.52
393.33	587.47
393.52	582.79
393.71	636.63
393.91	514.92
394.10	636.63
394.29	568.75
394.49	561.73
394.68	650.67
394.88	521.94
395.07	568.75
395.26	575.77
395.46	622.58
395.65	566.41
395.84	627.26
396.04	664.71
396.23	624.92
396.42	573.43
396.62	667.05
396.81	629.60
397.00	624.92
397.19	648.33
397.39	681.10
397.58	624.92
397.77	627.26
397.97	636.63
398.16	676.41
398.35	732.59
398.55	706.84
398.74	655.35
398.93	746.63
399.12	737.27
399.32	777.06
399.51	713.86
399.70	791.10
399.90	734.93
400.09	760.67
400.28	774.72
400.47	840.25
400.67	784.08
400.86	884.72
401.05	774.72
401.24	718.54
401.44	753.65
401.63	772.38
401.82	837.91
402.01	791.10
402.21	798.12
402.40	725.57
402.59	863.66
402.78	833.23
402.97	807.48
403.17	894.08
403.36	821.53
403.55	922.17
403.74	870.68
403.93	905.79
404.13	940.90
404.32	908.13
404.51	856.64
404.70	931.53
404.89	870.68
405.09	1036.86
405.28	919.83
405.47	957.28
405.66	926.85
405.85	971.32
406.05	966.64
406.24	1036.86
406.43	973.66
406.62	940.90
406.81	1041.54
407.00	1025.15
407.20	933.87
407.39	976.00
407.58	1069.62
407.77	1034.52
407.96	1053.24
408.15	1123.46
408.34	1048.56
408.54	1104.73
408.73	1149.20
408.92	1032.18
409.11	1116.44
409.30	1135.16
409.49	1069.62
409.68	1198.35
409.87	1114.10
410.07	1130.48
410.26	1160.91
410.45	1156.22
410.64	1200.69
410.83	1221.76
411.02	1177.29
411.21	1219.42
411.40	1224.10
411.59	1181.97
411.78	1252.19
411.98	1196.01
412.17	1240.48
412.36	1277.93
412.55	1315.38
412.74	1277.93
412.93	1362.19
413.12	1380.92
413.31	1448.79
413.50	1336.45
413.69	1364.53
413.88	1355.17
414.07	1387.94
414.26	1355.17
414.45	1399.64
414.64	1444.11
414.83	1481.56
415.02	1430.07
415.22	1547.09
415.41	1516.67
415.60	1533.05
415.79	1598.59
415.98	1577.52
416.17	1495.60
416.36	1467.52
416.55	1610.29
416.74	1657.10
416.93	1591.56
417.12	1713.27
417.31	1717.95
417.50	1811.57
417.69	1706.25
417.88	1757.74
418.07	1668.80
418.26	1689.87
418.45	1767.10
418.64	1797.53
418.83	1753.06
419.02	1736.68
419.21	1795.19
419.39	1804.55
419.58	1816.26
419.77	1806.89
419.96	1823.28
420.15	1827.96
420.34	1790.51
420.53	1881.79
420.72	1984.77
420.91	1895.83
421.10	2010.52
421.29	1996.48
421.48	1893.49
421.67	1851.36
421.86	1994.14
422.05	1891.15
422.24	1921.58
422.43	1970.73
422.61	1930.94
422.80	2040.95
422.99	1907.54
423.18	1994.14
423.37	2059.67
423.56	1989.46
423.75	2036.27
423.94	2052.65
424.13	1968.39
424.32	1959.03
424.50	2054.99
424.69	2094.78
424.88	2045.63
425.07	1989.46
425.26	1935.62
425.45	2012.86
425.64	2005.84
425.83	2104.14
426.01	2047.97
426.20	1956.69
426.39	2118.18
426.58	2054.99
426.77	1954.35
426.96	2069.03
427.15	2136.91
427.33	2078.40
427.52	2087.76
427.71	2085.42
427.90	2106.48
428.09	2207.13
428.28	2132.23
428.46	2104.14
428.65	2040.95
428.84	2256.28
429.03	2214.15
429.22	2169.68
429.40	2277.34
429.59	2242.23
429.78	2153.29
429.97	2195.42
430.16	2211.81
430.34	2237.55
430.53	2396.71
430.72	2312.45
430.91	2331.17
431.10	2312.45
431.28	2401.39
431.47	2415.43
431.66	2373.30
431.85	2401.39
432.03	2459.90
432.22	2452.88
432.41	2445.86
432.60	2377.98
432.79	2368.62
432.97	2459.90
433.16	2429.48
433.35	2410.75
433.54	2457.56
433.72	2417.77
433.91	2478.63
434.10	2497.35
434.28	2668.21
434.47	2602.68
434.66	2438.84
434.85	2576.93
435.03	2403.73
435.22	2567.57
435.41	2677.57
435.59	2679.91
435.78	2415.43
435.97	2530.12
436.16	2698.64
436.34	2583.95
436.53	2738.43
436.72	2792.26
436.90	2527.78
437.09	2747.79
437.28	2684.59
437.46	2696.30
437.65	2684.59
437.84	2818.00
438.02	2649.49
438.21	2836.73
438.40	2757.15
438.58	2841.41
438.77	2796.94
438.96	2764.17
439.14	2869.50
439.33	2782.90
439.52	3108.23
439.70	2899.92
439.89	2923.33
440.08	2916.31
440.26	3002.91
440.45	2965.46
440.63	3096.53
440.82	3183.13
441.01	3148.02
441.19	3166.74
441.38	3110.57
441.57	3222.92
441.75	3201.85
441.94	3239.30
442.12	3300.16
442.31	3407.82
442.50	3349.31
442.68	3370.37
442.87	3337.60
443.05	3335.26
443.24	3499.10
443.43	3286.11
443.61	3543.57
443.80	3403.14
443.98	3389.10
444.17	3246.32
444.35	3447.61
444.54	3499.10
444.73	3471.01
444.91	3459.31
445.10	3368.03
445.28	3311.86
445.47	3400.80
445.65	3407.82
445.84	3445.27
446.02	3421.86
446.21	3489.74
446.39	3403.14
446.58	3386.76
446.77	3435.91
446.95	3417.18
447.14	3679.32
447.32	3508.46
447.51	3389.10
447.69	3454.63
447.88	3550.59
448.06	3485.06
448.25	3562.30
448.43	3524.85
448.62	3466.33
448.80	3606.77
448.99	3676.98
449.17	3588.04
449.36	3555.27
449.54	3623.15
449.73	3595.06
449.91	3674.64
450.10	3616.13
450.28	3653.58
450.46	3618.47
450.65	3705.07
450.83	3634.85
451.02	3758.90
451.20	3782.31
451.39	3756.56
451.57	3786.99
451.76	3679.32
451.94	3857.20
452.13	3892.31
452.31	3871.25
452.49	3850.18
452.68	3861.88
452.86	3838.48
453.05	3840.82
453.23	3976.57
453.42	3693.37
453.60	3962.53
453.78	3939.12
453.97	3777.62
454.15	3922.74
454.34	3885.29
454.52	4035.08
454.70	4030.40
454.89	4018.70
455.07	3967.21
455.26	3936.78
455.44	4175.52
455.62	4084.23
455.81	3999.98
455.99	4030.40
456.17	4166.15
456.36	4032.74
456.54	4250.41
456.73	4091.26
456.91	4470.42
457.09	4266.80
457.28	4322.97
457.46	4194.24
457.64	4306.59
457.83	4222.33
458.01	4285.52
458.19	4404.89
458.38	4245.73
458.56	4390.84
458.74	4407.23
458.93	4367.44
459.11	4351.06
459.29	4351.06
459.48	4552.34
459.66	4507.87
459.84	4468.08
460.03	4388.50
460.21	4622.56
460.39	4397.87
460.57	4428.29
460.76	4660.01
460.94	4779.37
461.12	4622.56
461.31	4620.22
461.49	4667.03
461.67	4503.19
461.85	4725.54
462.04	4753.63
462.22	4830.87
462.40	4865.97
462.59	4571.07
462.77	4624.90
462.95	4751.29
463.13	4704.48
463.32	4889.38
463.50	4772.35
463.68	4868.31
463.86	4781.71
464.05	4807.46
464.23	4772.35
464.41	4940.87
464.59	4835.55
464.78	4959.60
464.96	4833.21
465.14	4830.87
465.32	4905.76
465.50	4964.28
465.69	5078.96
465.87	4919.81
466.05	4917.47
466.23	5055.56
466.41	5085.98
466.60	5088.32
466.78	5008.75
466.96	4858.95
467.14	5001.72
467.32	5151.52
467.51	5200.67
467.69	4966.62
467.87	5203.01
468.05	5102.37
468.23	5135.14
468.41	5128.11
468.60	5053.22
468.78	5125.77
468.96	5022.79
469.14	5350.46
469.32	5327.06
469.50	5139.82
469.69	5376.21
469.87	5338.76
470.05	5320.04
470.23	5362.17
470.41	5467.49
470.59	5577.50
470.77	5303.65
470.95	5444.09
471.14	5526.00
471.32	5413.66
471.50	5530.69
471.68	5589.20
471.86	5460.47
472.04	5598.56
472.22	5830.27
472.40	5645.37
472.58	5692.18
472.77	5692.18
472.95	5734.31
473.13	5816.23
473.31	5734.31
473.49	5839.64
473.67	5930.92
473.85	5802.19
474.03	5961.34
474.21	5790.49
474.39	6045.60
474.57	6073.69
474.75	6111.14
474.93	6232.85
475.12	6080.71
475.30	6076.03
475.48	6160.29
475.66	6260.93
475.84	6239.87
476.02	6312.42
476.20	6413.07
476.38	6387.32
476.56	6614.35
476.74	6480.94
476.92	6530.09
477.10	6497.33
477.28	6581.59
477.46	6588.61
477.64	6633.08
477.82	6752.45
478.00	6916.28
478.18	6841.39
478.36	6932.67
478.54	7042.67
478.72	6965.43
478.90	7087.14
479.08	7265.02
479.26	7351.62
479.44	7276.73
479.62	7208.85
479.80	7183.10
479.98	7428.86
480.16	7442.90
480.34	7592.70
480.52	7714.41
480.70	7627.81
480.88	7569.29
481.06	7765.90
481.24	7747.17
481.41	7868.88
481.59	7889.95
481.77	7868.88
481.95	7990.59
482.13	7941.44
482.31	8025.70
482.49	8166.13
482.67	8168.47
482.85	8266.77
483.03	8545.30
483.21	8549.98
483.39	8465.72
483.57	8622.53
483.74	8645.94
483.92	8535.93
484.10	8685.73
484.28	8716.16
484.46	8908.08
484.64	8966.59
484.82	8994.68
485.00	8947.87
485.18	9390.23
485.35	9352.78
485.53	9413.63
485.71	9287.25
485.89	9628.96
486.07	9488.53
486.25	9561.09
486.43	9713.22
486.61	9745.99
486.78	9930.89
486.96	9881.74
487.14	10101.75
487.32	10017.49
487.50	10024.51
487.68	10092.39
487.85	10293.68
488.03	10253.89
488.21	10478.58
488.39	10532.41
488.57	10518.37
488.75	10724.33
488.92	10796.89
489.10	10988.82
489.28	10911.58
489.46	10995.84
489.64	10953.71
489.81	11150.31
489.99	11255.64
490.17	11314.15
490.35	11337.56
490.53	11407.77
490.70	11613.74
490.88	11522.46
491.06	11777.58
491.24	11524.80
491.41	11674.59
491.59	11946.09
491.77	12018.65
491.95	11964.82
492.13	12156.74
492.30	12269.09
492.48	12264.41
492.66	12290.15
492.84	12400.16
493.01	12329.94
493.19	12549.95
493.37	12643.57
493.54	12601.44
493.72	12760.60
493.90	12908.05
494.08	12950.18
494.25	12933.80
494.43	13006.36
494.61	13324.67
494.79	13188.92
494.96	13296.58
495.14	13308.29
495.32	13261.48
495.49	13652.34
495.67	13664.05
495.85	13874.70
496.02	13860.65
496.20	13668.73
496.38	13870.01
496.55	13891.08
496.73	14164.92
496.91	13809.16
497.09	14239.82
497.26	14338.12
497.44	14242.16
497.62	14370.89
497.79	14436.42
497.97	14548.77
498.14	14656.43
498.32	14647.07
498.50	14799.21
498.67	14736.01
498.85	14848.36
499.03	15012.20
499.20	14927.94
499.38	14902.19
499.56	15257.95
499.73	15272.00
499.91	15651.16
500.08	15538.82
500.26	15321.15
500.44	15264.97
500.61	15733.08
500.79	15480.30
500.97	15651.16
501.14	15672.23
501.32	15714.36
501.49	15709.68
501.67	15807.98
501.84	15906.28
502.02	15583.29
502.20	16109.91
502.37	16240.98
502.55	16238.64
502.72	16091.18
502.90	16002.24
503.07	16086.50
503.25	16416.52
503.43	16280.77
503.60	16402.47
503.78	16641.21
503.95	16355.66
504.13	16437.58
504.30	16629.51
504.48	16636.53
504.65	16851.86
504.83	16606.10
505.01	16926.75
505.18	16816.75
505.36	17025.06
505.53	17118.68
505.71	16947.82
505.88	17011.01
506.06	16896.33
506.23	17130.38
506.41	17385.50
506.58	17326.99
506.76	17099.95
506.93	17326.99
507.11	17554.02
507.28	17584.44
507.46	17509.55
507.63	17741.26
507.81	17965.95
507.98	17261.45
508.16	17635.94
508.33	17598.49
508.50	17767.01
508.68	17877.01
508.85	18136.81
509.03	17982.34
509.20	18139.15
509.38	18223.41
509.55	18286.61
509.73	18094.68
509.90	18420.02
510.08	18256.18
510.25	18249.16
510.42	18384.91
510.60	18319.37
510.77	18717.26
510.95	18782.80
511.12	18452.78
511.30	18628.32
511.47	18527.68
511.64	18714.92
511.82	18888.12
511.99	18857.70
512.17	18815.57
512.34	18948.98
512.51	19278.99
512.69	19323.46
512.86	19014.51
513.04	19555.18
513.21	19094.09
513.38	19351.55
513.56	19168.99
513.73	19269.63
513.90	19358.57
514.08	19323.46
514.25	19358.57
514.43	19604.33
514.60	19711.99
514.77	19882.85
514.95	19955.41
515.12	19618.37
515.29	19625.39
515.47	19910.94
515.64	20074.77
515.81	19915.62
515.99	20390.75
516.16	20264.36
516.33	20292.44
516.51	20299.47
516.68	20357.98
516.85	20538.20
517.03	20451.60
517.20	20159.03
517.37	20247.97
517.54	20575.65
517.72	20636.50
517.89	20720.76
518.06	20325.21
518.24	20451.60
518.41	20238.61
518.58	20524.16
518.75	20847.15
518.93	20758.21
519.10	20765.23
519.27	20903.32
519.45	20945.45
519.62	20758.21
519.79	21078.86
519.96	20858.85
520.14	21008.65
520.31	21205.25
520.48	21233.34
520.65	20898.64
520.83	21226.32
521.00	21298.88
521.17	21366.75
521.34	21357.39
521.52	21238.02
521.69	21458.03
521.86	21766.98
522.03	21785.71
522.20	21759.96
522.38	21661.66
522.55	21640.59
522.72	21467.39
522.89	21813.79
523.07	22174.24
523.24	21942.52
523.41	22043.17
523.58	21853.58
523.75	22068.91
523.92	22050.19
524.10	22106.36
524.27	21998.70
524.44	22593.19
524.61	22642.34
524.78	22300.62
524.96	22380.20
525.13	22684.47
525.30	22424.67
525.47	22424.67
525.64	22361.48
525.81	22597.87
525.98	22436.38
526.16	22925.55
526.33	22354.46
526.50	22948.95
526.67	22799.16
526.84	22668.09
527.01	22918.53
527.18	22567.45
527.36	22663.41
527.53	23014.49
527.70	23407.70
527.87	23056.62
528.04	23307.05
528.21	23068.32
528.38	22953.63
528.55	23051.94
528.72	23030.87
528.89	23073.00
529.07	23513.02
529.24	23007.47
529.41	23653.45
529.58	23363.23
529.75	23075.34
529.92	23005.13
530.09	23337.48
530.26	23281.31
530.43	23536.43
530.60	23594.94
530.77	23321.10
530.94	23887.51
531.11	23672.18
531.28	23613.66
531.46	23871.12
531.63	23948.36
531.80	24051.34
531.97	23948.36
532.14	24226.89
532.31	23934.32
532.48	23941.34
532.65	23997.51
532.82	23737.71
532.99	24077.09
533.16	24245.61
533.33	24175.39
533.50	24339.23
533.67	24191.78
533.84	24409.45
534.01	24201.14
534.18	24196.46
534.35	24521.79
534.52	24519.45
534.69	24318.17
534.86	24669.25
535.03	24437.53
535.20	24692.65
535.37	24617.75
535.54	24355.61
535.71	24568.60
535.88	24561.58
536.05	24919.68
536.22	24912.66
536.38	25022.67
536.55	24788.61
536.72	24826.06
536.89	24379.02
537.06	24814.36
537.23	24870.53
537.40	24992.24
537.57	24744.14
537.74	25167.78
537.91	25221.61
538.08	25528.22
538.25	25083.52
538.42	25015.65
538.59	25462.69
538.75	24797.98
538.92	25184.16
539.09	25467.37
539.26	25369.07
539.43	25348.00
539.60	25357.36
539.77	25624.18
539.94	25694.40
540.11	25359.70
540.28	25591.42
540.44	25671.00
540.61	25584.40
540.78	25329.28
540.95	25692.06
541.12	25851.22
541.29	25425.24
541.46	25532.90
541.62	25614.82
541.79	25654.61
541.96	25860.58
542.13	25418.22
542.30	25935.48
542.47	26354.43
542.63	26288.90
542.80	26178.89
542.97	26253.79
543.14	25944.84
543.31	26136.76
543.48	25869.94
543.64	26211.66
543.81	26635.30
543.98	26586.15
544.15	26396.56
544.32	26424.65
544.48	26883.39
544.65	26644.66
544.82	26204.64
544.99	25954.20
545.16	26501.89
545.32	26403.58
545.49	26504.23
545.66	26778.07
545.83	26953.61
546.00	26995.74
546.16	26778.07
546.33	26302.94
546.50	26345.07
546.67	26501.89
546.83	26675.09
547.00	26710.19
547.17	26665.72
547.34	26869.35
547.50	26761.69
547.67	27246.18
547.84	26780.41
548.00	26801.47
548.17	26857.65
548.34	26979.36
548.51	27154.90
548.67	26986.38
548.84	27070.64
549.01	27276.60
549.18	26904.46
549.34	27122.13
549.51	26934.88
549.68	27126.81
549.84	27007.44
550.01	27239.15
550.18	27147.87
550.34	27243.84
550.51	27634.71
550.68	27419.38
550.84	27290.65
551.01	27941.32
551.18	27314.05
551.34	27051.91
551.51	27424.06
551.68	27307.03
551.84	27995.15
552.01	27688.54
552.18	27920.25
552.34	27517.68
552.51	27814.93
552.68	27339.80
552.84	27742.37
553.01	27571.51
553.18	27784.50
553.34	27817.27
553.51	27248.52
553.67	27861.74
553.84	28301.76
554.01	27845.35
554.17	28044.30
554.34	28369.63
554.51	27770.46
554.67	27908.55
554.84	27887.48
555.00	28063.02
555.17	28173.03
555.33	28102.81
555.50	28123.88
555.67	28219.84
555.83	27601.94
556.00	28074.73
556.16	28119.20
556.33	28133.24
556.50	28290.06
556.66	28283.03
556.83	28133.24
556.99	28762.84
557.16	28538.15
557.32	28624.75
557.49	28173.03
557.65	27967.06
557.82	28018.55
557.98	28456.23
558.15	28456.23
558.32	28158.99
558.48	28379.00
558.65	28254.95
558.81	28449.21
558.98	28599.01
559.14	28147.28
559.31	28409.42
559.47	28168.35
559.64	28570.92
559.80	28280.69
559.97	28657.52
560.13	28486.66
560.30	28510.07
560.46	28863.49
560.63	28671.56
560.79	28460.91
560.96	28776.89
561.12	28643.48
561.29	28683.27
561.45	29041.37
561.61	28718.37
561.78	28844.76
561.94	28720.71
562.11	28432.83
562.27	28922.00
562.44	28772.21
562.60	28779.23
562.77	28669.22
562.93	28905.62
563.10	29188.82
563.26	28889.23
563.42	28938.38
563.59	29015.62
563.75	29186.48
563.92	29041.37
564.08	28704.33
564.24	29001.58
564.41	28790.93
564.57	28992.22
564.74	28940.72
564.90	29167.76
565.07	28769.86
565.23	29109.24
565.39	29158.39
565.56	29345.64
565.72	29046.05
565.88	29270.74
566.05	29029.66
566.21	29008.60
566.38	28959.45
566.54	29219.25
566.70	29244.99
566.87	29549.26
567.03	29207.55
567.19	29600.76
567.36	29345.64
567.52	28989.88
567.68	29177.12
567.85	29509.47
568.01	28982.85
568.17	29326.91
568.34	29130.31
568.50	29584.37
568.66	29497.77
568.83	29572.67
568.99	29181.80
569.15	29596.07
569.32	29333.93
569.48	29060.09
569.64	29071.79
569.81	29345.64
569.97	29263.72
570.13	29626.50
570.30	29261.38
570.46	29443.94
570.62	29184.14
570.78	29345.64
570.95	29329.25
571.11	29570.33
571.27	29074.13
571.43	28914.98
571.60	29319.89
571.76	29209.89
571.92	29699.06
572.09	29528.20
572.25	29326.91
572.41	30125.04
572.57	29455.64
572.74	29443.94
572.90	29390.11
573.06	29221.59
573.22	29233.29
573.38	29708.42
573.55	29202.86
573.71	29818.42
573.87	29734.17
574.03	29076.48
574.20	29572.67
574.36	29256.70
574.52	29277.76
574.68	29429.90
574.84	29748.21
575.01	29827.79
575.17	29818.42
575.33	29750.55
575.49	29717.78
575.65	29692.04
575.82	29565.65
575.98	29474.37
576.14	29465.00
576.30	29495.43
576.46	29792.68
576.62	29610.12
576.79	29600.76
576.95	29567.99
577.11	29741.19
577.27	29635.86
577.43	29844.17
577.59	29083.50
577.75	29528.20
577.92	29525.86
578.08	29500.11
578.24	29355.00
578.40	29635.86
578.56	29858.21
578.72	29621.82
578.88	29905.02
579.04	30054.82
579.21	29511.81
579.37	29535.22
579.53	29546.92
579.69	29596.07
579.85	29619.48
580.01	29518.84
580.17	29607.78
580.33	29495.43
580.49	29895.66
580.65	29675.65
580.82	30008.01
580.98	29376.06
581.14	29717.78
581.30	29837.15
581.46	29450.96
581.62	29663.95
581.78	29841.83
581.94	29745.87
582.10	29745.87
582.26	29729.48
582.42	29652.25
582.58	29825.45
582.74	29741.19
582.90	30031.41
583.06	29876.94
583.22	29713.10
583.38	29762.25
583.54	29869.92
583.70	29626.50
583.86	29734.17
584.02	29640.54
584.18	30045.46
584.34	30043.12
584.50	30295.89
584.66	29993.97
584.82	29900.34
584.98	29898.00
585.14	29617.14
585.30	29514.16
585.46	29780.98
585.62	30108.65
585.78	30061.84
585.94	29612.46
586.10	30164.82
586.26	30120.35
586.42	29757.57
586.58	29888.64
586.74	29745.87
586.90	29692.04
587.06	29663.95
587.22	29827.79
587.38	29467.34
587.54	29872.26
587.70	30068.86
587.86	30221.00
588.02	30171.85
588.18	30129.72
588.34	29975.24
588.49	30022.05
588.65	30036.09
588.81	29888.64
588.97	30197.59
589.13	29736.51
589.29	29944.81
589.45	30015.03
589.61	30195.25
589.77	30244.40
589.93	30326.32
590.08	30314.62
590.24	30178.87
590.40	30148.44
590.56	30319.30
590.72	29699.06
590.88	29729.48
591.04	29940.13
591.20	30082.91
591.35	30199.93
591.51	30625.91
591.67	30457.39
591.83	30616.55
591.99	30361.43
592.15	30143.76
592.31	30054.82
592.46	29844.17
592.62	30174.19
592.78	29869.92
592.94	30045.46
593.10	30061.84
593.26	30183.55
593.41	30485.48
593.57	30141.42
593.73	30394.20
593.89	30419.94
594.05	29846.51
594.20	30291.21
594.36	30249.08
594.52	30082.91
594.68	30211.64
594.84	29923.75
594.99	30153.12
595.15	30068.86
595.31	30368.45
595.47	30396.54
595.62	30635.27
595.78	30354.41
595.94	30356.75
596.10	30178.87
596.25	30316.96
596.41	29675.65
596.57	30033.75
596.73	30551.01
596.88	30106.31
597.04	30686.76
597.20	30677.40
597.36	30073.54
597.51	30195.25
597.67	30293.55
597.83	30342.70
597.99	30469.09
598.14	30244.40
598.30	30522.93
598.46	30396.54
598.61	30597.82
598.77	30700.81
598.93	30520.59
599.09	30513.56
599.24	30649.32
599.40	30403.56
599.56	30558.03
599.71	30466.75
599.87	30745.28
600.03	30480.80
600.18	30710.17
600.34	30075.88
600.50	30473.78
600.65	30506.54
600.81	30499.52
600.97	30930.18
601.12	30597.82
601.28	30384.83
601.44	30518.25
601.59	30466.75
601.75	30342.70
601.91	30625.91
602.06	30761.66
602.22	30415.26
602.37	30579.10
602.53	30349.73
602.69	30433.99
602.84	30436.33
603.00	30555.69
603.16	30909.11
603.31	30536.97
603.47	30518.25
603.62	30558.03
603.78	30401.22
603.94	30319.30
604.09	30464.41
604.25	30146.10
604.40	30384.83
604.56	30307.60
604.71	30686.76
604.87	30712.51
605.03	30443.35
605.18	30429.30
605.34	30284.19
605.49	30370.79
605.65	30639.95
605.80	29895.66
605.96	30061.84
606.12	30068.86
606.27	30548.67
606.43	30110.99
606.58	30129.72
606.74	30223.34
606.89	30176.53
607.05	30443.35
607.20	30225.68
607.36	30527.61
607.51	30204.61
607.67	30047.80
607.82	29860.55
607.98	30242.06
608.13	30508.88
608.29	30380.15
608.44	30553.35
608.60	30359.09
608.75	30281.85
608.91	30623.57
609.06	30342.70
609.22	30527.61
609.37	29851.19
609.53	30029.07
609.68	30319.30
609.84	30157.80
609.99	29764.59
610.15	30218.66
610.30	29968.22
610.46	29984.60
610.61	30230.36
610.76	30462.07
610.92	29951.84
611.07	29874.60
611.23	30298.23
611.38	30000.99
611.54	29879.28
611.69	29713.10
611.84	29743.53
612.00	29720.12
612.15	29656.93
612.31	30141.42
612.46	29855.87
612.62	30302.92
612.77	30108.65
612.92	30328.66
613.08	29972.90
613.23	30045.46
613.39	30019.71
613.54	30108.65
613.69	29502.45
613.85	29951.84
614.00	29942.47
614.15	29813.74
614.31	30026.73
614.46	29617.14
614.62	29652.25
614.77	29890.98
614.92	29631.18
615.08	29631.18
615.23	29383.09
615.38	29905.02
615.54	29661.61
615.69	29577.35
615.84	29230.95
616.00	29509.47
616.15	29635.86
616.30	29970.56
616.46	29820.77
616.61	29352.66
616.76	29722.46
616.92	29558.63
617.07	29413.51
617.22	29359.68
617.37	29331.59
617.53	29434.58
617.68	29455.64
617.83	29111.58
617.99	29280.10
618.14	29558.63
618.29	29479.05
618.45	29420.53
618.60	29298.83
618.75	29467.34
618.90	29273.08
619.06	29544.58
619.21	29853.53
619.36	29404.15
619.51	29116.26
619.67	28900.94
619.82	29120.95
619.97	29406.49
620.12	29167.76
620.28	29113.92
620.43	29181.80
620.58	29488.41
620.73	29383.09
620.89	28968.81
621.04	29500.11
621.19	29722.46
621.34	29249.67
621.49	29106.90
621.65	29219.25
621.80	29261.38
621.95	29015.62
622.10	28858.81
622.25	29006.26
622.41	28938.38
622.56	28776.89
622.71	29074.13
622.86	28938.38
623.01	29027.32
623.16	28713.69
623.32	28772.21
623.47	29116.26
623.62	28914.98
623.77	28922.00
623.92	28783.91
624.07	28828.38
624.23	29071.79
624.38	29013.28
624.53	28842.42
624.68	28823.70
624.83	28891.57
624.98	29006.26
625.13	28814.34
625.29	28950.09
625.44	28493.68
625.59	28762.84
625.74	28500.70
625.89	28577.94
626.04	28013.87
626.19	28290.06
626.34	28477.30
626.49	28379.00
626.65	28474.96
626.80	28423.47
626.95	28608.37
627.10	28311.12
627.25	28254.95
627.40	28580.28
627.55	28215.16
627.70	28086.43
627.85	28287.71
628.00	28173.03
628.15	28210.48
628.30	28463.25
628.45	28250.27
628.60	28070.04
628.76	28091.11
628.91	27950.68
629.06	28245.58
629.21	28226.86
629.36	28449.21
629.51	28009.19
629.66	28393.04
629.81	28128.56
629.96	27648.75
630.11	28056.00
630.26	27899.19
630.41	28051.32
630.56	27990.47
630.71	28180.05
630.86	27960.04
631.01	27950.68
631.16	27798.54
631.31	28100.47
631.46	27751.73
631.61	27990.47
631.76	27845.35
631.91	27688.54
632.06	27756.41
632.21	27943.66
632.36	27601.94
632.51	27527.04
632.66	28067.70
632.81	27676.83
632.96	27824.29
633.10	28137.92
633.25	27763.43
633.40	27878.12
633.55	27793.86
633.70	27786.84
633.85	27220.43
634.00	27477.89
634.15	27690.88
634.30	27749.39
634.45	27632.36
634.60	27150.21
634.75	27840.67
634.90	27721.30
635.05	28161.33
635.19	27826.63
635.34	28046.64
635.49	27424.06
635.64	27501.29
635.79	27571.51
635.94	27548.11
636.09	27527.04
636.24	27367.88
636.39	26895.10
636.53	27573.85
636.68	27377.25
636.83	27323.41
636.98	27623.00
637.13	27175.96
637.28	27491.93
637.43	27538.74
637.57	27349.16
637.72	27304.69
637.87	27246.18
638.02	27124.47
638.17	27047.23
638.32	27089.36
638.46	27091.70
638.61	26932.54
638.76	26944.25
638.91	26824.88
639.06	26948.93
639.20	27105.74
639.35	26981.70
639.50	27037.87
639.65	27171.28
639.80	26981.70
639.94	27529.38
640.09	26888.07
640.24	26881.05
640.39	26927.86
640.54	26656.36
640.68	26749.98
640.83	26888.07
640.98	26895.10
641.13	26560.40
641.27	27070.64
641.42	26647.00
641.57	26829.56
641.72	26761.69
641.86	26513.59
642.01	26576.78
642.16	26452.73
642.31	26621.25
642.45	26714.87
642.60	26441.03
642.75	26216.34
642.90	26284.22
643.04	26637.64
643.19	26539.33
643.34	26345.07
643.48	26824.88
643.63	26518.27
643.78	26581.46
643.93	26455.08
644.07	26562.74
644.22	26572.10
644.37	26443.37
644.51	26429.33
644.66	26459.76
644.81	26309.96
644.95	26228.04
645.10	26169.53
645.25	26054.84
645.39	26157.83
645.54	26319.32
645.69	26211.66
645.83	26309.96
645.98	26525.29
646.13	26511.25
646.27	26246.77
646.42	26033.78
646.57	26506.57
646.71	26111.02
646.86	26373.16
647.00	26188.25
647.15	26356.77
647.30	26120.38
647.44	25862.92
647.59	26335.71
647.74	26108.68
647.88	26148.46
648.03	25841.85
648.17	26686.79
648.32	26036.12
648.47	26218.68
648.61	26249.11
648.76	26195.28
648.90	26174.21
649.05	26052.50
649.20	26209.32
649.34	25818.45
649.49	25958.88
649.63	25560.99
649.78	25923.77
649.92	26003.35
650.07	26099.31
650.21	26082.93
650.36	25577.37
650.51	25752.91
650.65	26064.21
650.80	25773.98
650.94	25542.27
651.09	25516.52
651.23	25441.62
651.38	25762.28
651.52	25640.57
651.67	25954.20
651.81	25818.45
651.96	25757.60
652.10	25633.55
652.25	25333.96
652.39	25895.69
652.54	26092.29
652.68	25905.05
652.83	25317.57
652.97	26008.03
653.12	25996.33
653.26	25301.19
653.41	25364.39
653.55	25371.41
653.70	25448.64
653.84	25582.06
653.99	25193.53
654.13	25469.71
654.27	25310.55
654.42	24959.47
654.56	25738.87
654.71	25392.47
654.85	25205.23
655.00	25607.80
655.14	25167.78
655.29	25397.15
655.43	25039.05
655.57	25120.97
655.72	25256.72
655.86	25287.15
656.01	25205.23
656.15	24973.52
656.30	25113.95
656.44	24893.94
656.58	25034.37
656.73	25029.69
656.87	24973.52
657.01	25165.44
657.16	25151.40
657.30	25216.93
657.45	25095.22
657.59	24985.22
657.73	25062.46
657.88	24858.83
658.02	24741.80
658.16	25123.31
658.31	25123.31
658.45	24601.37
658.60	24734.78
658.74	24767.55
658.88	24819.04
659.03	24868.19
659.17	24769.89
659.31	24863.51
659.46	24500.73
659.60	24945.43
659.74	25069.48
659.89	24355.61
660.03	24549.88
660.17	24367.32
660.32	24322.85
660.46	24498.39
660.60	24006.87
660.74	24306.46
660.89	24393.06
661.03	23988.15
661.17	24472.64
661.32	23995.17
661.46	24348.59
661.60	24201.14
661.74	24465.62
661.89	24563.92
662.03	24409.45
662.17	24238.59
662.31	24088.79
662.46	24496.05
662.60	23910.91
662.74	24004.53
662.88	23924.96
663.03	23910.91
663.17	23899.21
663.31	23683.88
663.45	23538.77
663.60	23791.55
663.74	23634.73
663.88	23644.09
664.02	23601.96
664.17	23831.33
664.31	23433.44
664.45	23655.79
664.59	23854.74
664.73	23578.56
664.88	23477.91
665.02	23555.15
665.16	23461.53
665.30	23438.12
665.44	23302.37
665.59	22944.27
665.73	23398.34
665.87	23234.50
666.01	23412.38
666.15	23300.03
666.29	23410.04
666.44	23370.25
666.58	22951.29
666.72	22906.82
666.86	23351.52
667.00	23529.41
667.14	23234.50
667.28	22932.57
667.43	22995.76
667.57	23105.77
667.71	23178.33
667.85	22764.05
667.99	22939.59
668.13	22438.72
668.27	22902.14
668.41	22527.66
668.56	22621.28
668.70	23007.47
668.84	22878.74
668.98	22766.39
669.12	22689.15
669.26	22607.23
669.40	22394.25
669.54	22696.17
669.68	22546.38
669.82	22466.80
669.96	21996.35
670.10	22630.64
670.25	22291.26
670.39	22352.12
670.53	22108.70
670.67	21923.80
670.81	22052.53
670.95	22012.74
671.09	22174.24
671.23	22321.69
671.37	22176.58
671.51	22045.51
671.65	22209.34
671.79	22302.96
671.93	21940.18
672.07	22005.72
672.21	21666.34
672.35	21645.27
672.49	21582.08
672.63	21621.87
672.77	21851.24
672.91	21631.23
673.05	21497.82
673.19	21766.98
673.33	21432.29
673.47	21495.48
673.61	21324.62
673.75	21235.68
673.89	21355.05
674.03	21156.10
674.17	21329.30
674.31	21425.26
674.45	21191.21
674.59	21132.70
674.73	20957.16
674.87	20985.24
675.01	21008.65
675.15	21078.86
675.29	20762.89
675.43	20751.19
675.56	20783.96
675.70	20884.60
675.84	20690.34
675.98	20308.83
676.12	20812.04
676.26	20779.28
676.40	20702.04
676.54	20739.49
676.68	20585.01
676.82	20201.16
676.96	20402.45
677.10	20173.08
677.23	20475.01
677.37	19964.77
677.51	20091.16
677.65	19960.09
677.79	19875.83
677.93	19906.26
678.07	19864.13
678.21	19740.08
678.34	19571.56
678.48	19714.33
678.62	19379.64
678.76	19793.91
678.90	19407.72
679.04	19489.64
679.18	19349.21
679.31	19391.34
679.45	19131.54
679.59	18911.53
679.73	19199.41
679.87	18960.68
680.00	19012.17
680.14	18813.23
680.28	19176.01
680.42	18794.50
680.56	19068.34
680.70	18923.23
680.83	18738.33
680.97	18600.24
681.11	18838.97
681.25	18766.42
681.39	18897.49
681.52	18111.07
681.66	18347.46
681.80	18497.25
681.94	18108.72
682.07	18118.09
682.21	18438.74
682.35	18263.20
682.49	18033.83
682.62	18054.89
682.76	17652.32
682.90	18085.32
683.04	17912.12
683.17	18022.12
683.31	17923.82
683.45	18122.77
683.59	17867.65
683.72	17738.92
683.86	17750.62
684.00	17621.89
684.13	17483.80
684.27	17383.16
684.41	17331.67
684.55	17458.06
684.68	17099.95
684.82	16594.40
684.96	17053.14
685.09	16837.81
685.23	17001.65
685.37	16723.13
685.50	17022.72
685.64	17153.79
685.78	16788.66
685.91	16753.55
686.05	16748.87
686.19	16456.31
686.32	16964.20
686.46	16517.16
686.60	16238.64
686.73	16435.24
686.87	16240.98
687.01	16540.57
687.14	16538.23
687.28	16470.35
687.42	16166.08
687.55	16262.04
687.69	15843.09
687.82	16002.24
687.96	16020.97
688.10	15873.51
688.23	16084.16
688.37	15796.28
688.50	15899.26
688.64	16182.46
688.78	15789.25
688.91	15700.31
689.05	15583.29
689.18	15779.89
689.32	15232.21
689.46	15367.96
689.59	15272.00
689.73	15342.21
689.86	15382.00
690.00	15075.39
690.13	15190.08
690.27	15070.71
690.41	15253.27
690.54	14979.43
690.68	14827.29
690.81	15140.93
690.95	15272.00
691.08	14932.62
691.22	14871.76
691.35	14686.86
691.49	14817.93
691.62	14562.81
691.76	14424.72
691.89	14693.88
692.03	14349.82
692.16	14073.64
692.30	14342.80
692.43	14033.85
692.57	14221.10
692.70	13956.61
692.84	13977.68
692.97	14010.45
693.11	14129.81
693.24	13858.31
693.38	14132.15
693.51	14157.90
693.65	14038.53
693.78	13921.51
693.92	13762.35
694.05	13781.07
694.19	13661.71
694.32	13654.69
694.45	13336.37
694.59	13671.07
694.72	13181.90
694.86	13261.48
694.99	13004.02
695.13	13256.79
695.26	13357.44
695.39	12716.13
695.53	13226.37
695.66	13039.12
695.80	13153.81
695.93	12840.18
696.07	12842.52
696.20	12978.27
696.33	12870.61
696.47	12903.37
696.60	12872.95
696.73	12627.19
696.87	12620.17
697.00	12730.17
697.14	12451.65
697.27	12037.38
697.40	12531.23
697.54	12231.64
697.67	12140.36
697.80	12226.96
697.94	12170.79
698.07	12121.63
698.21	12030.35
698.34	12133.34
698.47	12269.09
698.61	11709.70
698.74	11861.84
698.87	12004.61
699.01	11843.11
699.14	11782.26
699.27	12011.63
699.40	11681.61
699.54	11723.74
699.67	11681.61
699.80	11424.15
699.94	11564.59
700.07	11351.60
700.20	11318.83
700.34	11250.96
700.47	11351.60
700.60	11342.24
700.73	11218.19
700.87	11152.65
701.00	11206.48
701.13	11103.50
701.26	11131.59
701.40	11063.71
701.53	11147.97
701.66	10876.47
701.79	10590.92
701.93	10743.06
702.06	10569.86
702.19	10668.16
702.32	10607.31
702.46	10572.20
702.59	10590.92
702.72	10415.38
702.85	10373.25
702.99	10441.13
703.12	10438.79
703.25	10223.46
703.38	10143.88
703.51	10167.29
703.65	10094.73
703.78	10054.94
703.91	10153.24
704.04	10043.24
704.17	10178.99
704.31	10202.40
704.44	9844.29
704.57	9792.80
704.70	9898.13
704.83	9738.97
704.96	9741.31
705.10	9643.01
705.23	9547.05
>>>>>End Processed Spectral Data<<<<<
