SpectraSuite Data File
++++++++++++++++++++++++++++++++++++
Date: Fri Oct 18 13:58:10 GMT-05:00 2013
User: bianchi
Dark Spectrum Present: No
Reference Spectrum Present: No
Number of Sampled Component Spectra: 1
Spectrometers: USB2+H05261
Integration Time (usec): 50000 (USB2+H05261)
Spectra Averaged: 1 (USB2+H05261)
Boxcar Smoothing: 0 (USB2+H05261)
Correct for Electrical Dark: No (USB2+H05261)
Strobe/Lamp Enabled: No (USB2+H05261)
Correct for Detector Non-linearity: No (USB2+H05261)
Correct for Stray Light: No (USB2+H05261)
Number of Pixels in Processed Spectrum: 2048
>>>>>Begin Processed Spectral Data<<<<<
365.73	0.00
365.92	0.00
366.12	0.00
366.32	0.00
366.52	0.00
366.72	0.00
366.91	0.00
367.11	0.00
367.31	0.00
367.51	0.00
367.70	0.00
367.90	0.00
368.10	0.00
368.30	0.00
368.49	0.00
368.69	0.00
368.89	0.00
369.09	0.00
369.28	0.00
369.48	0.00
369.68	0.00
369.87	0.00
370.07	0.00
370.27	0.00
370.47	0.00
370.66	60.85
370.86	119.37
371.06	98.30
371.25	149.79
371.45	177.88
371.65	173.20
371.84	163.84
372.04	72.56
372.24	180.22
372.44	140.43
372.63	145.11
372.83	124.05
373.03	198.95
373.22	210.65
373.42	262.14
373.62	280.86
373.81	243.42
374.01	248.10
374.21	189.58
374.40	198.95
374.60	266.82
374.79	285.55
374.99	248.10
375.19	280.86
375.38	243.42
375.58	217.67
375.78	390.87
375.97	255.12
376.17	245.76
376.37	280.86
376.56	315.97
376.76	255.12
376.95	264.48
377.15	360.44
377.35	290.23
377.54	243.42
377.74	229.37
377.93	257.46
378.13	327.68
378.33	325.33
378.52	212.99
378.72	379.17
378.91	330.02
379.11	334.70
379.31	227.03
379.50	290.23
379.70	301.93
379.89	341.72
380.09	297.25
380.28	346.40
380.48	273.84
380.68	203.63
380.87	294.91
381.07	285.55
381.26	269.16
381.46	346.40
381.65	355.76
381.85	287.89
382.04	425.98
382.24	367.46
382.43	388.53
382.63	264.48
382.83	388.53
383.02	386.19
383.22	395.55
383.41	327.68
383.61	348.74
383.80	388.53
384.00	388.53
384.19	390.87
384.39	442.36
384.58	358.10
384.78	367.46
384.97	402.57
385.17	404.91
385.36	430.66
385.56	456.40
385.75	369.80
385.95	414.27
386.14	496.19
386.34	463.43
386.53	418.96
386.72	428.32
386.92	440.02
387.11	498.53
387.31	447.04
387.50	437.68
387.70	463.43
387.89	442.36
388.09	428.32
388.28	491.51
388.48	514.92
388.67	425.98
388.86	510.24
389.06	407.25
389.25	484.49
389.45	489.17
389.64	479.81
389.84	524.28
390.03	493.85
390.22	500.87
390.42	519.60
390.61	510.24
390.81	587.47
391.00	447.04
391.19	545.34
391.39	559.39
391.58	582.79
391.78	470.45
391.97	538.32
392.16	524.28
392.36	524.28
392.55	512.58
392.75	580.45
392.94	575.77
393.13	510.24
393.33	470.45
393.52	596.84
393.71	610.88
393.91	629.60
394.10	664.71
394.29	620.24
394.49	575.77
394.68	540.66
394.88	528.96
395.07	582.79
395.26	615.56
395.46	561.73
395.65	610.88
395.84	603.86
396.04	732.59
396.23	650.67
396.42	650.67
396.62	655.35
396.81	690.46
397.00	631.94
397.19	688.12
397.39	603.86
397.58	690.46
397.77	641.31
397.97	662.37
398.16	709.18
398.35	683.44
398.55	662.37
398.74	723.23
398.93	744.29
399.12	653.01
399.32	725.57
399.51	781.74
399.70	730.25
399.90	833.23
400.09	814.51
400.28	784.08
400.47	777.06
400.67	887.06
400.86	856.64
401.05	858.98
401.24	903.45
401.44	842.59
401.63	802.80
401.82	793.44
402.01	809.83
402.21	891.74
402.40	915.15
402.59	826.21
402.78	912.81
402.97	877.70
403.17	959.62
403.36	849.61
403.55	858.98
403.74	875.36
403.93	884.72
404.13	858.98
404.32	898.77
404.51	856.64
404.70	912.81
404.89	943.24
405.09	945.58
405.28	954.94
405.47	983.02
405.66	896.43
405.85	1006.43
406.05	992.39
406.24	936.21
406.43	1067.28
406.62	1107.07
406.81	1088.35
407.00	1067.28
407.20	1071.97
407.39	966.64
407.58	1041.54
407.77	1163.25
407.96	1048.56
408.15	1191.33
408.34	1067.28
408.54	1224.10
408.73	1109.41
408.92	1156.22
409.11	1146.86
409.30	1128.14
409.49	1170.27
409.68	1025.15
409.87	1123.46
410.07	1177.29
410.26	1198.35
410.45	1254.53
410.64	1210.06
410.83	1221.76
411.02	1289.64
411.21	1245.16
411.40	1296.66
411.59	1270.91
411.78	1345.81
411.98	1212.40
412.17	1320.06
412.36	1289.64
412.55	1324.74
412.74	1467.52
412.93	1418.36
413.12	1397.30
413.31	1418.36
413.50	1390.28
413.69	1448.79
413.88	1441.77
414.07	1549.43
414.26	1425.39
414.45	1533.05
414.64	1460.49
414.83	1535.39
415.02	1558.80
415.22	1549.43
415.41	1638.38
415.60	1692.21
415.79	1603.27
415.98	1572.84
416.17	1502.62
416.36	1643.06
416.55	1563.48
416.74	1610.29
416.93	1647.74
417.12	1626.67
417.31	1713.27
417.50	1703.91
417.69	1748.38
417.88	1769.44
418.07	1797.53
418.26	1905.20
418.45	1760.08
418.64	1942.64
418.83	1795.19
419.02	1797.53
419.21	1870.09
419.39	1879.45
419.58	1846.68
419.77	1790.51
419.96	1781.15
420.15	1954.35
420.34	1839.66
420.53	1891.15
420.72	2024.56
420.91	1816.26
421.10	1963.71
421.29	2024.56
421.48	1973.07
421.67	1968.39
421.86	1956.69
422.05	2003.50
422.24	1984.77
422.43	2010.52
422.61	2111.16
422.80	2003.50
422.99	2176.70
423.18	2024.56
423.37	2069.03
423.56	2115.84
423.75	1989.46
423.94	2003.50
424.13	1891.15
424.32	1923.92
424.50	2015.20
424.69	2078.40
424.88	1954.35
425.07	2069.03
425.26	1961.37
425.45	1963.71
425.64	2113.50
425.83	2045.63
426.01	2216.49
426.20	2012.86
426.39	2139.25
426.58	2076.06
426.77	2120.53
426.96	2054.99
427.15	2073.71
427.33	2122.87
427.52	2129.89
427.71	2331.17
427.90	2143.93
428.09	2174.36
428.28	2246.91
428.46	2239.89
428.65	2282.02
428.84	2275.00
429.03	2118.18
429.22	2190.74
429.40	2338.20
429.59	2282.02
429.78	2127.55
429.97	2169.68
430.16	2324.15
430.34	2312.45
430.53	2324.15
430.72	2363.94
430.91	2394.37
431.10	2359.26
431.28	2492.67
431.47	2394.37
431.66	2457.56
431.85	2387.35
432.03	2422.45
432.22	2438.84
432.41	2537.14
432.60	2485.65
432.79	2459.90
432.97	2455.22
433.16	2436.50
433.35	2541.82
433.54	2520.76
433.72	2586.29
433.91	2548.84
434.10	2630.76
434.28	2497.35
434.47	2520.76
434.66	2612.04
434.85	2567.57
435.03	2642.46
435.22	2628.42
435.41	2689.28
435.59	2693.96
435.78	2605.02
435.97	2759.49
436.16	2722.04
436.34	2698.64
436.53	2663.53
436.72	2789.92
436.90	2803.96
437.09	2750.13
437.28	2668.21
437.46	2782.90
437.65	2773.53
437.84	2815.66
438.02	2892.90
438.21	2841.41
438.40	2738.43
438.58	2953.76
438.77	2862.48
438.96	2810.98
439.14	2930.35
439.33	2979.50
439.52	3019.29
439.70	3033.33
439.89	3080.14
440.08	3110.57
440.26	3148.02
440.45	3152.70
440.63	3152.70
440.82	3173.77
441.01	3190.15
441.19	3185.47
441.38	3192.49
441.57	3267.39
441.75	3201.85
441.94	3368.03
442.12	3391.44
442.31	3318.88
442.50	3337.60
442.68	3452.29
442.87	3330.58
443.05	3522.51
443.24	3318.88
443.43	3412.50
443.61	3508.46
443.80	3534.21
443.98	3391.44
444.17	3300.16
444.35	3379.73
444.54	3431.23
444.73	3424.20
444.91	3351.65
445.10	3382.07
445.28	3576.34
445.47	3358.67
445.65	3510.80
445.84	3478.04
446.02	3616.13
446.21	3667.62
446.39	3447.61
446.58	3435.91
446.77	3581.02
446.95	3515.48
447.14	3463.99
447.32	3595.06
447.51	3529.53
447.69	3513.14
447.88	3637.19
448.06	3576.34
448.25	3583.36
448.43	3569.32
448.62	3772.94
448.80	3660.60
448.99	3583.36
449.17	3674.64
449.36	3672.30
449.54	3712.09
449.73	3714.43
449.91	3784.65
450.10	3744.86
450.28	3838.48
450.46	3868.91
450.65	3719.11
450.83	3822.09
451.02	3908.69
451.20	3922.74
451.39	3847.84
451.57	3777.62
451.76	3695.71
451.94	3796.35
452.13	3831.46
452.31	3999.98
452.49	3927.42
452.68	3815.07
452.86	3794.01
453.05	4114.66
453.23	3922.74
453.42	3936.78
453.60	3889.97
453.78	3957.85
453.97	3922.74
454.15	3939.12
454.34	3999.98
454.52	4102.96
454.70	4079.55
454.89	4056.15
455.07	3969.55
455.26	4133.39
455.44	4273.82
455.62	4065.51
455.81	4053.81
455.99	4308.93
456.17	4283.18
456.36	4276.16
456.54	4203.60
456.73	4255.09
456.91	4346.37
457.09	4386.16
457.28	4414.25
457.46	4411.91
457.64	4489.15
457.83	4421.27
458.01	4334.67
458.19	4629.58
458.38	4447.02
458.56	4491.49
458.74	4575.75
458.93	4491.49
459.11	4507.87
459.29	4510.21
459.48	4585.11
459.66	4519.57
459.84	4489.15
460.03	4767.67
460.21	4535.96
460.39	4692.77
460.57	4610.86
460.76	4521.92
460.94	4692.77
461.12	4599.15
461.31	4683.41
461.49	4809.80
461.67	4851.93
461.85	4725.54
462.04	4755.97
462.22	5146.84
462.40	4861.29
462.59	4685.75
462.77	4760.65
462.95	4798.10
463.13	4805.12
463.32	4931.51
463.50	4931.51
463.68	5074.28
463.86	4861.29
464.05	5069.60
464.23	4910.44
464.41	5046.20
464.59	5022.79
464.78	5139.82
464.96	5137.48
465.14	5034.49
465.32	5158.54
465.50	5097.69
465.69	5163.22
465.87	5022.79
466.05	5048.54
466.23	5156.20
466.41	5158.54
466.60	5320.04
466.78	5046.20
466.96	5057.90
467.14	5149.18
467.32	5231.10
467.51	5362.17
467.69	5123.43
467.87	5212.37
468.05	5217.05
468.23	5135.14
468.41	5135.14
468.60	5315.36
468.78	5380.89
468.96	5334.08
469.14	5397.28
469.32	5416.00
469.50	5273.23
469.69	5441.75
469.87	5469.83
470.05	5441.75
470.23	5535.37
470.41	5523.66
470.59	5486.22
470.77	5418.34
470.95	5612.60
471.14	5614.95
471.32	5577.50
471.50	5769.42
471.68	5600.90
471.86	5570.48
472.04	5858.36
472.22	5806.87
472.40	5692.18
472.58	5806.87
472.77	5844.32
472.95	6059.65
473.13	6080.71
473.31	5961.34
473.49	6024.54
473.67	5937.94
473.85	6019.86
474.03	6036.24
474.21	5902.83
474.39	6207.10
474.57	6232.85
474.75	6338.17
474.93	6267.95
475.12	6150.93
475.30	6356.90
475.48	6448.18
475.66	6368.60
475.84	6310.08
476.02	6384.98
476.20	6471.58
476.38	6525.41
476.56	6672.87
476.74	6724.36
476.92	6733.72
477.10	6710.32
477.28	6712.66
477.46	6778.19
477.64	6911.60
477.82	7056.72
478.00	7035.65
478.18	7080.12
478.36	7087.14
478.54	7309.49
478.72	7103.53
478.90	7197.15
479.08	7262.68
479.26	7241.62
479.44	7384.39
479.62	7379.71
479.80	7506.10
479.98	7552.91
480.16	7812.71
480.34	7620.78
480.52	7819.73
480.70	7761.22
480.88	7669.94
481.06	7786.96
481.24	7887.61
481.41	7908.67
481.59	8145.06
481.77	8037.40
481.95	8191.88
482.13	8430.61
482.31	8365.07
482.49	8322.94
482.67	8425.93
482.85	8542.96
483.03	8573.38
483.21	8554.66
483.39	8816.80
483.57	8791.05
483.74	8772.33
483.92	8711.47
484.10	8791.05
484.28	9004.04
484.46	9380.87
484.64	9444.06
484.82	9158.52
485.00	9130.43
485.18	9731.95
485.35	9703.86
485.53	9586.83
485.71	9610.24
485.89	9935.57
486.07	9633.64
486.25	9703.86
486.43	9806.84
486.61	9856.00
486.78	10071.33
486.96	10057.28
487.14	10382.62
487.32	10228.14
487.50	10356.87
487.68	10546.45
487.85	10668.16
488.03	10663.48
488.21	10672.84
488.39	10902.22
488.57	10895.19
488.75	10991.16
488.92	11019.24
489.10	11075.42
489.28	11283.72
489.46	11171.38
489.64	11370.32
489.81	11080.10
489.99	11506.07
490.17	11522.46
490.35	11695.66
490.53	11805.66
490.70	11831.41
490.88	11943.75
491.06	12248.02
491.24	11929.71
491.41	11997.59
491.59	12280.79
491.77	12325.26
491.95	12308.88
492.13	12432.93
492.30	12538.25
492.48	12486.76
492.66	12730.17
492.84	12571.02
493.01	12624.85
493.19	12856.56
493.37	13064.87
493.54	13006.36
493.72	13193.60
493.90	13144.45
494.08	13343.39
494.25	13544.68
494.43	13411.27
494.61	13481.49
494.79	13490.85
494.96	13458.08
495.14	13748.31
495.32	14059.60
495.49	13830.23
495.67	13944.91
495.85	14160.24
496.02	14047.90
496.20	14090.02
496.38	14384.93
496.55	14129.81
496.73	14693.88
496.91	14230.46
497.09	14541.75
497.26	14801.55
497.44	14843.68
497.62	14684.52
497.79	15009.86
497.97	14677.50
498.14	15302.42
498.32	15129.22
498.50	14984.11
498.67	15447.54
498.85	15033.26
499.03	15166.67
499.20	15262.63
499.38	15307.10
499.56	15391.36
499.73	15611.37
499.91	15690.95
500.08	15606.69
500.26	15587.97
500.44	15534.14
500.61	15740.10
500.79	15845.43
500.97	15941.39
501.14	16294.81
501.32	16053.73
501.49	16142.67
501.67	16067.78
501.84	16460.99
502.02	16477.37
502.20	16421.20
502.37	16465.67
502.55	16556.95
502.72	16486.73
502.90	16472.69
503.07	16479.71
503.25	16470.35
503.43	16589.72
503.60	17153.79
503.78	16779.30
503.95	16875.26
504.13	17043.78
504.30	17097.61
504.48	16856.54
504.65	17277.83
504.83	17226.34
505.01	17326.99
505.18	17624.23
505.36	17404.22
505.53	17397.20
505.71	17425.29
505.88	17481.46
506.06	17188.89
506.23	17708.49
506.41	17577.42
506.58	17865.31
506.76	17949.57
506.93	18015.10
507.11	17905.10
507.28	17954.25
507.46	18132.13
507.63	18085.32
507.81	18246.82
507.98	17996.38
508.16	18361.50
508.33	18150.85
508.50	18368.52
508.68	18394.27
508.85	18689.18
509.03	18450.44
509.20	18562.79
509.38	18602.58
509.55	19037.92
509.73	18637.69
509.90	18874.08
510.08	18974.72
510.25	18939.62
510.42	19037.92
510.60	19103.45
510.77	19164.31
510.95	19255.59
511.12	19398.36
511.30	18773.44
511.47	19342.19
511.64	19449.85
511.82	19215.80
511.99	19421.77
512.17	19634.75
512.34	19503.68
512.51	19309.42
512.69	19651.14
512.86	19688.59
513.04	19646.46
513.21	20137.97
513.38	19747.10
513.56	20339.26
513.73	19843.06
513.90	20156.69
514.08	19477.94
514.25	19906.26
514.43	20109.88
514.60	20318.19
514.77	20133.29
514.95	20343.94
515.12	20030.30
515.29	20367.34
515.47	20418.83
515.64	20615.44
515.81	20203.50
515.99	20505.43
516.16	20723.10
516.33	20402.45
516.51	20978.22
516.68	20704.38
516.85	20629.48
517.03	20922.05
517.20	20662.25
517.37	21064.82
517.54	21240.36
517.72	21172.49
517.89	21170.15
518.06	20847.15
518.24	21102.27
518.41	21025.03
518.58	21420.58
518.75	21345.69
518.93	21570.38
519.10	21612.51
519.27	21593.78
519.45	21579.74
519.62	21518.89
519.79	21490.80
519.96	21352.71
520.14	21441.65
520.31	21603.14
520.48	21795.07
520.65	21935.50
520.83	21846.56
521.00	21661.66
521.17	21921.46
521.34	21895.71
521.52	22239.77
521.69	21972.95
521.86	22286.58
522.03	22132.11
522.20	22361.48
522.38	22223.39
522.55	22375.52
522.72	22565.10
522.89	22221.05
523.07	22703.20
523.24	22544.04
523.41	22888.10
523.58	22541.70
523.75	22539.36
523.92	22291.26
524.10	22635.32
524.27	22817.88
524.44	23222.80
524.61	22904.48
524.78	22998.10
524.96	22864.69
525.13	22878.74
525.30	22897.46
525.47	23082.36
525.64	23283.65
525.81	23126.83
525.98	23122.15
526.16	23283.65
526.33	23524.72
526.50	23498.98
526.67	23246.20
526.84	23381.95
527.01	23281.31
527.18	23459.19
527.36	23606.64
527.53	23758.78
527.70	23964.75
527.87	24023.26
528.04	23494.30
528.21	23864.10
528.38	23716.65
528.55	23807.93
528.72	23859.42
528.89	23880.49
529.07	23651.11
529.24	24079.43
529.41	24222.20
529.58	23915.59
529.75	24325.19
529.92	23899.21
530.09	24149.65
530.26	23821.97
530.43	24353.27
530.60	24182.42
530.77	24322.85
530.94	24528.81
531.11	24421.15
531.28	24552.22
531.46	24201.14
531.63	24737.12
531.80	24559.24
531.97	24821.38
532.14	24556.90
532.31	24603.71
532.48	24278.38
532.65	24980.54
532.82	24870.53
532.99	24865.85
533.16	24662.22
533.33	24947.77
533.50	25090.54
533.67	24683.29
533.84	24915.00
534.01	24795.64
534.18	24835.42
534.35	25113.95
534.52	24971.18
534.69	25291.83
534.86	25057.78
535.03	24893.94
535.20	25223.95
535.37	25539.93
535.54	25469.71
535.71	25308.21
535.88	25448.64
536.05	25273.10
536.22	25214.59
536.38	25394.81
536.55	25443.96
536.72	25504.82
536.89	25324.60
537.06	25329.28
537.23	25685.04
537.40	25621.84
537.57	25659.29
537.74	25797.38
537.91	26057.18
538.08	25912.07
538.25	25886.32
538.42	25759.94
538.59	26115.70
538.75	25626.53
538.92	25853.56
539.09	26195.28
539.26	26050.16
539.43	26197.62
539.60	26438.69
539.77	26209.32
539.94	26094.63
540.11	26038.46
540.28	26192.94
540.44	25853.56
540.61	25984.63
540.78	26237.41
540.95	26370.82
541.12	26422.31
541.29	26642.32
541.46	26284.22
541.62	26111.02
541.79	26309.96
541.96	26382.52
542.13	26757.00
542.30	26347.41
542.47	26663.38
542.63	26639.98
542.80	26834.24
542.97	27068.30
543.14	26747.64
543.31	26773.39
543.48	26925.52
543.64	27484.91
543.81	27468.53
543.98	27161.92
544.15	27213.41
544.32	27105.74
544.48	26951.27
544.65	26974.67
544.82	27229.79
544.99	26867.01
545.16	27246.18
545.32	27028.51
545.49	27264.90
545.66	27400.65
545.83	27548.11
546.00	27477.89
546.16	27585.55
546.33	27274.26
546.50	27225.11
546.67	27138.51
546.83	27229.79
547.00	27410.01
547.17	27555.13
547.34	27819.61
547.50	27683.86
547.67	27936.63
547.84	27641.73
548.00	27835.99
548.17	27646.41
548.34	27777.48
548.51	28126.22
548.67	28308.78
548.84	27971.74
549.01	27910.89
549.18	27711.94
549.34	27831.31
549.51	27662.79
549.68	27903.87
549.84	27604.28
550.01	27810.25
550.18	28077.07
550.34	28261.97
550.51	28533.47
550.68	28254.95
550.84	27948.34
551.01	28268.99
551.18	27917.91
551.34	28053.66
551.51	28086.43
551.68	28304.10
551.84	28514.75
552.01	28442.19
552.18	28554.54
552.34	28484.32
552.51	28765.18
552.68	28379.00
552.84	28339.21
553.01	28404.74
553.18	28601.35
553.34	28400.06
553.51	28341.55
553.67	28723.05
553.84	28842.42
554.01	28879.87
554.17	28685.61
554.34	28774.55
554.51	28701.99
554.67	29097.54
554.84	28767.52
555.00	28870.51
555.17	28730.08
555.33	28826.04
555.50	28774.55
555.67	29275.42
555.83	28767.52
556.00	29099.88
556.16	28772.21
556.33	28842.42
556.50	29317.55
556.66	29359.68
556.83	29181.80
556.99	29039.03
557.16	29247.33
557.32	29364.36
557.49	29256.70
557.65	28870.51
557.82	28884.55
557.98	29448.62
558.15	29158.39
558.32	29179.46
558.48	29282.44
558.65	29177.12
558.81	29432.24
558.98	29460.32
559.14	29289.46
559.31	29060.09
559.47	29237.97
559.64	29612.46
559.80	29277.76
559.97	29645.23
560.13	29422.87
560.30	29457.98
560.46	29378.40
560.63	29411.17
560.79	29558.63
560.96	29860.55
561.12	29022.64
561.29	29598.41
561.45	29567.99
561.61	29289.46
561.78	29640.54
561.94	29699.06
562.11	29949.50
562.27	29371.38
562.44	29362.02
562.60	29551.60
562.77	29549.26
562.93	29647.57
563.10	29919.07
563.26	29582.03
563.42	30000.99
563.59	29809.06
563.75	29998.65
563.92	30031.41
564.08	29804.38
564.24	29715.44
564.41	29984.60
564.57	29720.12
564.74	29886.30
564.90	29874.60
565.07	30300.58
565.23	30127.38
565.39	29890.98
565.56	30022.05
565.72	30012.69
565.88	29916.73
566.05	29968.22
566.21	29783.32
566.38	29907.37
566.54	30401.22
566.70	29940.13
566.87	30515.90
567.03	30129.72
567.19	30782.73
567.36	30319.30
567.52	30171.85
567.68	30422.28
567.85	29872.26
568.01	30335.68
568.17	29710.76
568.34	30218.66
568.50	30323.98
568.66	30333.34
568.83	30363.77
568.99	30221.00
569.15	29745.87
569.32	30183.55
569.48	30373.13
569.64	30157.80
569.81	30075.88
569.97	30466.75
570.13	30382.49
570.30	30122.69
570.46	30288.87
570.62	30314.62
570.78	30171.85
570.95	30052.48
571.11	30347.39
571.27	30052.48
571.43	30057.16
571.60	30223.34
571.76	30293.55
571.92	30522.93
572.09	30326.32
572.25	30433.99
572.41	30443.35
572.57	30279.51
572.74	30586.12
572.90	30169.51
573.06	30263.13
573.22	30279.51
573.38	29937.79
573.55	30316.96
573.71	30752.30
573.87	30618.89
574.03	30422.28
574.20	30485.48
574.36	29963.54
574.52	30504.20
574.68	30485.48
574.84	30387.18
575.01	30099.29
575.17	30272.49
575.33	30244.40
575.49	30726.55
575.65	30663.36
575.82	30595.48
575.98	30319.30
576.14	30504.20
576.30	30478.46
576.46	30597.82
576.62	30312.28
576.79	30586.12
576.95	30410.58
577.11	30485.48
577.27	30494.84
577.43	30438.67
577.59	30293.55
577.75	30441.01
577.92	30366.11
578.08	30749.96
578.24	30239.72
578.40	30377.81
578.56	30630.59
578.72	30368.45
578.88	30850.60
579.04	30810.81
579.21	30438.67
579.37	30595.48
579.53	30398.88
579.69	30565.06
579.85	30637.61
580.01	30782.73
580.17	30380.15
580.33	31044.87
580.49	30801.45
580.65	30834.22
580.82	30279.51
580.98	30333.34
581.14	30412.92
581.30	30747.62
581.46	30380.15
581.62	30581.44
581.78	30040.78
581.94	30766.34
582.10	30607.19
582.26	30368.45
582.42	30609.53
582.58	30520.59
582.74	30813.15
582.90	30874.01
583.06	30586.12
583.22	30572.08
583.38	30930.18
583.54	30728.89
583.70	30745.28
583.86	31002.74
584.02	30572.08
584.18	31014.44
584.34	30586.12
584.50	30944.22
584.66	31021.46
584.82	30293.55
584.98	30714.85
585.14	30792.09
585.30	30431.65
585.46	30752.30
585.62	30728.89
585.78	30738.26
585.94	30359.09
586.10	30742.94
586.26	31042.53
586.42	30827.20
586.58	31016.78
586.74	30551.01
586.90	30513.56
587.06	30443.35
587.22	30993.37
587.38	30543.99
587.54	30962.95
587.70	31218.07
587.86	30712.51
588.02	31145.51
588.18	31150.19
588.34	31473.18
588.49	30890.39
588.65	30665.70
588.81	30885.71
588.97	31009.76
589.13	31016.78
589.29	30871.67
589.45	31197.00
589.61	30916.14
589.77	31342.11
589.93	31391.26
590.08	31056.57
590.24	31365.52
590.40	31199.34
590.56	31208.70
590.72	31119.76
590.88	30972.31
591.04	30953.58
591.20	31477.86
591.35	31395.95
591.51	31351.48
591.67	31166.57
591.83	31246.15
591.99	31358.50
592.15	31538.72
592.31	30979.33
592.46	31077.63
592.62	31037.84
592.78	31227.43
592.94	30927.84
593.10	31089.34
593.26	31302.32
593.41	31690.85
593.57	31152.53
593.73	31330.41
593.89	31087.00
594.05	31056.57
594.20	30773.36
594.36	31344.45
594.52	31171.25
594.68	30874.01
594.84	31082.31
594.99	31171.25
595.15	31079.97
595.31	31728.30
595.47	31030.82
595.62	31204.02
595.78	31168.91
595.94	31110.40
596.10	31407.65
596.25	31494.25
596.41	31225.09
596.57	31005.08
596.73	31192.32
596.88	31454.46
597.04	31388.92
597.20	31491.91
597.36	31229.77
597.51	31407.65
597.67	31075.29
597.83	31442.76
597.99	31583.19
598.14	31566.81
598.30	31363.18
598.46	31452.12
598.61	31566.81
598.77	31122.10
598.93	31695.53
599.09	31297.64
599.24	31505.95
599.40	31374.88
599.56	31276.58
599.71	31667.45
599.87	31683.83
600.03	31159.55
600.18	31133.81
600.34	31199.34
600.50	31365.52
600.65	31508.29
600.81	31798.52
600.97	31534.04
601.12	31915.54
601.28	31091.68
601.44	31917.89
601.59	31749.37
601.75	31857.03
601.91	31428.71
602.06	31269.56
602.22	31386.58
602.37	31440.42
602.53	31861.71
602.69	31742.35
602.84	31480.21
603.00	31323.39
603.16	31105.72
603.31	31625.32
603.47	31784.48
603.62	31409.99
603.78	31363.18
603.94	31414.67
604.09	31470.84
604.25	31374.88
604.40	30852.94
604.56	31161.89
604.71	31742.35
604.87	31545.74
605.03	31508.29
605.18	31751.71
605.34	31321.05
605.49	31185.30
605.65	31583.19
605.80	31019.12
605.96	30967.63
606.12	31349.14
606.27	31414.67
606.43	31108.06
606.58	31735.32
606.74	31503.61
606.89	31475.52
607.05	31260.20
607.20	31562.12
607.36	31023.80
607.51	31227.43
607.67	31091.68
607.82	31000.40
607.98	31257.85
608.13	31119.76
608.29	31295.30
608.44	31194.66
608.60	30923.16
608.75	31271.90
608.91	31218.07
609.06	31166.57
609.22	31541.06
609.37	31000.40
609.53	31241.47
609.68	31021.46
609.84	30911.46
609.99	31070.61
610.15	31211.04
610.30	31182.96
610.46	31302.32
610.61	30972.31
610.76	31143.17
610.92	31222.75
611.07	31079.97
611.23	30717.19
611.38	30920.82
611.54	31002.74
611.69	30969.97
611.84	30888.05
612.00	31133.81
612.15	30822.51
612.31	31161.89
612.46	31012.10
612.62	31079.97
612.77	31136.15
612.92	31087.00
613.08	30902.09
613.23	31021.46
613.39	30766.34
613.54	31063.59
613.69	30749.96
613.85	30944.22
614.00	30724.21
614.15	30986.35
614.31	30740.60
614.46	30953.58
614.62	30614.21
614.77	31101.04
614.92	30972.31
615.08	30764.00
615.23	30768.68
615.38	30881.03
615.54	30312.28
615.69	30752.30
615.84	30274.83
616.00	30581.44
616.15	30309.94
616.30	30834.22
616.46	30625.91
616.61	31098.70
616.76	31166.57
616.92	30663.36
617.07	30462.07
617.22	30235.04
617.37	30735.92
617.53	30984.01
617.68	30712.51
617.83	30609.53
617.99	30288.87
618.14	29991.62
618.29	30291.21
618.45	30841.24
618.60	30139.08
618.75	30595.48
618.90	30396.54
619.06	30651.66
619.21	29982.26
619.36	30764.00
619.51	30553.35
619.67	30078.22
619.82	30008.01
619.97	30068.86
620.12	30389.52
620.28	29977.58
620.43	30321.64
620.58	30405.90
620.73	30415.26
620.89	30218.66
621.04	30101.63
621.19	30375.47
621.34	30223.34
621.49	30146.10
621.65	30185.89
621.80	30153.12
621.95	29888.64
622.10	29715.44
622.25	30054.82
622.41	29956.52
622.56	30169.51
622.71	30298.23
622.86	29799.70
623.01	29963.54
623.16	30129.72
623.32	30061.84
623.47	30127.38
623.62	29951.84
623.77	30010.35
623.92	29914.39
624.07	30118.01
624.23	29837.15
624.38	29933.11
624.53	29448.62
624.68	29914.39
624.83	29879.28
624.98	29958.86
625.13	29865.24
625.29	29544.58
625.44	29607.78
625.59	29413.51
625.74	29668.63
625.89	29724.80
626.04	29631.18
626.19	29823.11
626.34	29553.94
626.49	29635.86
626.65	29411.17
626.80	29603.10
626.95	29359.68
627.10	29230.95
627.25	29563.31
627.40	29589.05
627.55	29296.49
627.70	29137.33
627.85	29369.04
628.00	28896.25
628.15	29071.79
628.30	29465.00
628.45	29149.03
628.60	29053.07
628.76	29439.26
628.91	29624.16
629.06	29216.91
629.21	29242.65
629.36	29146.69
629.51	29200.52
629.66	29202.86
629.81	29032.00
629.96	29298.83
630.11	28917.32
630.26	29036.69
630.41	29067.11
630.56	28643.48
630.71	29120.95
630.86	29200.52
631.01	28996.90
631.16	29249.67
631.31	29172.44
631.46	28762.84
631.61	29064.77
631.76	29319.89
631.91	28669.22
632.06	29081.16
632.21	28409.42
632.36	28943.06
632.51	28844.76
632.66	28929.02
632.81	28498.36
632.96	29099.88
633.10	28545.17
633.25	28622.41
633.40	28800.29
633.55	28790.93
633.70	28566.24
633.85	28343.89
634.00	28842.42
634.15	28545.17
634.30	28723.05
634.45	28746.46
634.60	28783.91
634.75	28081.75
634.90	28664.54
635.05	28591.98
635.19	28975.83
635.34	28591.98
635.49	28617.73
635.64	28350.91
635.79	28631.77
635.94	27953.02
636.09	28573.26
636.24	28273.67
636.39	28343.89
636.53	28676.24
636.68	28439.85
636.83	28318.14
636.98	28514.75
637.13	28095.79
637.28	28528.79
637.43	28442.19
637.57	28308.78
637.72	28386.02
637.87	28266.65
638.02	28432.83
638.17	28140.26
638.32	27843.01
638.46	28151.96
638.61	27908.55
638.76	27929.61
638.91	28037.28
639.06	27831.31
639.20	28105.15
639.35	28297.08
639.50	27875.78
639.65	28315.80
639.80	28121.54
639.94	27868.76
640.09	28006.85
640.24	28374.31
640.39	27648.75
640.54	27571.51
640.68	27520.02
640.83	27725.99
640.98	27756.41
641.13	27182.98
641.27	28053.66
641.42	27920.25
641.57	27679.18
641.72	28327.50
641.86	27695.56
642.01	27496.61
642.16	27414.69
642.31	27527.04
642.45	27990.47
642.60	27323.41
642.75	27379.59
642.90	27477.89
643.04	27267.24
643.19	27426.40
643.34	27365.54
643.48	27683.86
643.63	27644.07
643.78	27513.00
643.93	27482.57
644.07	27686.20
644.22	27426.40
644.37	27468.53
644.51	27580.87
644.66	27524.70
644.81	27304.69
644.95	27346.82
645.10	27328.10
645.25	27314.05
645.39	27098.72
645.54	27311.71
645.69	27700.24
645.83	27344.48
645.98	27222.77
646.13	27449.80
646.27	27440.44
646.42	27105.74
646.57	27182.98
646.71	27807.90
646.86	27342.14
647.00	27395.97
647.15	27311.71
647.30	27070.64
647.44	27021.48
647.59	27108.08
647.74	27091.70
647.88	27042.55
648.03	26663.38
648.17	27112.77
648.32	27372.57
648.47	27110.43
648.61	27187.66
648.76	27211.07
648.90	27269.58
649.05	26867.01
649.20	26923.18
649.34	26822.54
649.49	26593.17
649.63	26913.82
649.78	26457.42
649.92	26778.07
650.07	26981.70
650.21	26625.93
650.36	27021.48
650.51	26176.55
650.65	26876.37
650.80	27054.25
650.94	27030.85
651.09	26733.60
651.23	26632.96
651.38	26426.99
651.52	26562.74
651.67	26691.47
651.81	26618.91
651.96	26625.93
652.10	26604.87
652.25	26831.90
652.39	26726.58
652.54	26462.10
652.68	26663.38
652.83	26951.27
652.97	27065.96
653.12	26497.20
653.26	26499.55
653.41	26525.29
653.55	26600.19
653.70	26260.81
653.84	26377.84
653.99	26352.09
654.13	26473.80
654.27	26485.50
654.42	26658.70
654.56	26459.76
654.71	26593.17
654.85	26256.13
655.00	26436.35
655.14	26178.89
655.29	26284.22
655.43	26712.53
655.57	26328.69
655.72	26008.03
655.86	26307.62
656.01	26054.84
656.15	25975.27
656.30	26080.59
656.44	25781.00
656.58	26326.35
656.73	26176.55
656.87	25919.09
657.01	26068.89
657.16	26143.78
657.30	26120.38
657.45	26410.60
657.59	26438.69
657.73	25631.21
657.88	25928.45
658.02	26038.46
658.16	25764.62
658.31	25448.64
658.45	25631.21
658.60	25734.19
658.74	25881.64
658.88	25607.80
659.03	25626.53
659.17	25640.57
659.31	25694.40
659.46	25696.74
659.60	26015.05
659.74	25631.21
659.89	25376.09
660.03	25610.14
660.17	25769.30
660.32	25198.21
660.46	25397.15
660.60	25345.66
660.74	25284.81
660.89	25104.59
661.03	24989.90
661.17	25287.15
661.32	25296.51
661.46	25394.81
661.60	24973.52
661.74	25317.57
661.89	25003.94
662.03	25401.83
662.17	24964.15
662.31	25223.95
662.46	25160.76
662.60	25006.28
662.74	24795.64
662.88	24594.35
663.03	24940.75
663.17	24694.99
663.31	24673.93
663.45	24409.45
663.60	24458.60
663.74	24547.54
663.88	24587.33
664.02	24503.07
664.17	24947.77
664.31	24311.14
664.45	24645.84
664.59	24404.77
664.73	24615.41
664.88	24287.74
665.02	24109.86
665.16	24175.39
665.30	24212.84
665.44	24161.35
665.59	24203.48
665.73	24077.09
665.87	24133.26
666.01	24128.58
666.15	24039.64
666.29	24039.64
666.44	24271.36
666.58	23953.04
666.72	23857.08
666.86	24144.97
667.00	24023.26
667.14	24070.07
667.28	23939.00
667.43	23924.96
667.57	24060.71
667.71	23758.78
667.85	23683.88
667.99	23726.01
668.13	23419.40
668.27	23763.46
668.41	23583.24
668.56	23623.03
668.70	23864.10
668.84	23630.05
668.98	23412.38
669.12	23456.85
669.26	23459.19
669.40	23253.22
669.54	23665.16
669.68	22951.29
669.82	23351.52
669.96	23234.50
670.10	23033.21
670.25	23110.45
670.39	23215.77
670.53	23276.63
670.67	22806.18
670.81	22740.64
670.95	23140.88
671.09	23140.88
671.23	22862.35
671.37	23084.70
671.51	22731.28
671.65	23154.92
671.79	22665.75
671.93	22632.98
672.07	22829.59
672.21	22370.84
672.35	22700.86
672.49	22300.62
672.63	22576.81
672.77	22185.94
672.91	22352.12
673.05	22424.67
673.19	22340.41
673.33	22361.48
673.47	22017.42
673.61	22382.54
673.75	22368.50
673.89	22164.87
674.03	22211.68
674.17	22302.96
674.31	21813.79
674.45	21804.43
674.59	21947.20
674.73	22143.81
674.87	21806.77
675.01	21668.68
675.15	21759.96
675.29	21551.65
675.43	21748.26
675.56	21425.26
675.70	21596.12
675.84	21717.83
675.98	21043.76
676.12	21766.98
676.26	21537.61
676.40	21273.13
676.54	21212.28
676.68	21418.24
676.82	20652.89
676.96	21001.63
677.10	21406.54
677.23	20844.81
677.37	21085.89
677.51	20805.02
677.65	20678.63
677.79	20357.98
677.93	20446.92
678.07	20507.77
678.21	20446.92
678.34	20395.43
678.48	20577.99
678.62	20561.61
678.76	20500.75
678.90	20308.83
679.04	20402.45
679.18	20322.87
679.31	19662.84
679.45	19456.87
679.59	19639.44
679.73	19789.23
679.87	19398.36
680.00	19524.75
680.14	19618.37
680.28	19611.35
680.42	19578.58
680.56	19674.54
680.70	19550.49
680.83	19707.31
680.97	19295.38
681.11	19543.47
681.25	19475.60
681.39	19199.41
681.52	19339.85
681.66	19337.51
681.80	18761.73
681.94	19108.13
682.07	18916.21
682.21	18937.27
682.35	18998.13
682.49	18862.38
682.62	18544.06
682.76	18773.44
682.90	18845.99
683.04	18565.13
683.17	18590.88
683.31	18511.30
683.45	18546.40
683.59	18614.28
683.72	18544.06
683.86	18523.00
684.00	18787.48
684.13	18302.99
684.27	17844.24
684.41	18288.95
684.55	17921.48
684.68	18127.45
684.82	17703.81
684.96	17851.27
685.09	17563.38
685.23	17631.26
685.37	17638.28
685.50	17867.65
685.64	17675.73
685.78	17614.87
685.91	17860.63
686.05	17710.83
686.19	17425.29
686.32	17451.03
686.46	17425.29
686.60	16833.13
686.73	17266.13
686.87	17102.29
687.01	17156.13
687.14	16978.25
687.28	16903.35
687.42	17055.48
687.55	16664.61
687.69	16863.56
687.82	16498.44
687.96	16493.76
688.10	16559.29
688.23	16219.91
688.37	16395.45
688.50	16404.81
688.64	16336.94
688.78	16652.91
688.91	16086.50
689.05	16210.55
689.18	16133.31
689.32	15690.95
689.46	15859.47
689.59	15866.49
689.73	15885.22
689.86	15800.96
690.00	15669.89
690.13	15733.08
690.27	15534.14
690.41	16006.92
690.54	15548.18
690.68	15716.70
690.81	15550.52
690.95	15548.18
691.08	15332.85
691.22	15419.45
691.35	15321.15
691.49	15365.62
691.62	15309.44
691.76	15229.87
691.89	15133.90
692.03	14745.38
692.16	14853.04
692.30	15002.83
692.43	14654.09
692.57	14953.68
692.70	14733.67
692.84	14618.99
692.97	14604.94
693.11	14452.81
693.24	14232.80
693.38	14401.32
693.51	14391.95
693.65	14389.61
693.78	14258.54
693.92	14499.62
694.05	14141.52
694.19	14106.41
694.32	14359.19
694.45	13937.89
694.59	14008.11
694.72	13774.05
694.86	13949.59
694.99	13776.39
695.13	13542.34
695.26	13650.00
695.39	13706.18
695.53	13404.25
695.66	13652.34
695.80	13345.73
695.93	13619.58
696.07	13465.10
696.20	13495.53
696.33	13303.60
696.47	13593.83
696.60	13317.65
696.73	13504.89
696.87	13151.47
697.00	13099.98
697.14	12830.82
697.27	12711.45
697.40	12905.71
697.54	12706.77
697.67	12929.12
697.80	12791.03
697.94	12437.61
698.07	12435.27
698.21	12613.15
698.34	12659.96
698.47	12690.38
698.61	12622.51
698.74	12652.94
698.87	12468.03
699.01	12102.91
699.14	12079.50
699.27	12360.37
699.40	11981.20
699.54	11950.78
699.67	12248.02
699.80	11747.15
699.94	11871.20
700.07	11932.05
700.20	11702.68
700.34	11585.65
700.47	11482.67
700.60	11618.42
700.73	11941.41
700.87	11723.74
701.00	11456.92
701.13	11555.22
701.26	11459.26
701.40	11550.54
701.53	11330.53
701.66	11449.90
701.79	11339.90
701.93	11190.10
702.06	11225.21
702.19	10913.92
702.32	10918.60
702.46	11028.60
702.59	11021.58
702.72	10773.49
702.85	10721.99
702.99	10586.24
703.12	10532.41
703.25	10588.58
703.38	10677.52
703.51	10663.48
703.65	10679.86
703.78	10670.50
703.91	10452.83
704.04	10361.55
704.17	10670.50
704.31	10665.82
704.44	10242.18
704.57	10361.55
704.70	10284.31
704.83	10097.07
704.96	9963.66
705.10	10003.45
705.23	10073.67
>>>>>End Processed Spectral Data<<<<<
