SpectraSuite Data File
++++++++++++++++++++++++++++++++++++
Date: Fri Oct 18 13:58:35 GMT-05:00 2013
User: bianchi
Dark Spectrum Present: No
Reference Spectrum Present: No
Number of Sampled Component Spectra: 1
Spectrometers: USB2+H05261
Integration Time (usec): 50000 (USB2+H05261)
Spectra Averaged: 1 (USB2+H05261)
Boxcar Smoothing: 0 (USB2+H05261)
Correct for Electrical Dark: No (USB2+H05261)
Strobe/Lamp Enabled: No (USB2+H05261)
Correct for Detector Non-linearity: No (USB2+H05261)
Correct for Stray Light: No (USB2+H05261)
Number of Pixels in Processed Spectrum: 2048
>>>>>Begin Processed Spectral Data<<<<<
365.73	0.00
365.92	0.00
366.12	0.00
366.32	0.00
366.52	0.00
366.72	0.00
366.91	0.00
367.11	0.00
367.31	0.00
367.51	0.00
367.70	0.00
367.90	0.00
368.10	0.00
368.30	0.00
368.49	0.00
368.69	0.00
368.89	0.00
369.09	0.00
369.28	0.00
369.48	0.00
369.68	0.00
369.87	0.00
370.07	0.00
370.27	0.00
370.47	0.00
370.66	102.98
370.86	121.71
371.06	124.05
371.25	124.05
371.45	135.75
371.65	147.45
371.84	140.43
372.04	142.77
372.24	161.50
372.44	189.58
372.63	212.99
372.83	224.69
373.03	266.82
373.22	163.84
373.42	142.77
373.62	238.73
373.81	220.01
374.01	243.42
374.21	250.44
374.40	236.39
374.60	252.78
374.79	276.18
374.99	301.93
375.19	245.76
375.38	250.44
375.58	276.18
375.78	259.80
375.97	313.63
376.17	264.48
376.37	259.80
376.56	299.59
376.76	250.44
376.95	177.88
377.15	287.89
377.35	299.59
377.54	262.14
377.74	234.05
377.93	196.60
378.13	304.27
378.33	273.84
378.52	271.50
378.72	241.08
378.91	276.18
379.11	325.33
379.31	243.42
379.50	318.31
379.70	379.17
379.89	290.23
380.09	306.61
380.28	379.17
380.48	234.05
380.68	306.61
380.87	334.70
381.07	390.87
381.26	341.72
381.46	308.95
381.65	308.95
381.85	339.38
382.04	318.31
382.24	290.23
382.43	299.59
382.63	337.04
382.83	353.42
383.02	414.27
383.22	353.42
383.41	259.80
383.61	407.25
383.80	374.49
384.00	351.08
384.19	390.87
384.39	381.51
384.58	379.17
384.78	327.68
384.97	418.96
385.17	423.64
385.36	327.68
385.56	322.99
385.75	348.74
385.95	444.70
386.14	402.57
386.34	369.80
386.53	477.47
386.72	435.34
386.92	407.25
387.11	409.59
387.31	365.12
387.50	411.93
387.70	449.38
387.89	393.21
388.09	430.66
388.28	430.66
388.48	482.15
388.67	528.96
388.86	442.36
389.06	411.93
389.25	418.96
389.45	437.68
389.64	484.49
389.84	461.09
390.03	458.74
390.22	470.45
390.42	416.62
390.61	496.19
390.81	402.57
391.00	477.47
391.19	475.13
391.39	552.37
391.58	521.94
391.78	528.96
391.97	568.75
392.16	550.03
392.36	578.11
392.55	561.73
392.75	613.22
392.94	545.34
393.13	587.47
393.33	475.13
393.52	610.88
393.71	564.07
393.91	526.62
394.10	580.45
394.29	552.37
394.49	538.32
394.68	599.18
394.88	533.64
395.07	688.12
395.26	582.79
395.46	655.35
395.65	660.03
395.84	599.18
396.04	667.05
396.23	653.01
396.42	617.90
396.62	699.82
396.81	664.71
397.00	585.13
397.19	631.94
397.39	578.11
397.58	713.86
397.77	627.26
397.97	718.54
398.16	709.18
398.35	711.52
398.55	657.69
398.74	657.69
398.93	634.29
399.12	667.05
399.32	739.61
399.51	674.07
399.70	699.82
399.90	765.36
400.09	779.40
400.28	784.08
400.47	788.76
400.67	786.42
400.86	760.67
401.05	758.33
401.24	727.91
401.44	786.42
401.63	830.89
401.82	880.04
402.01	805.14
402.21	826.21
402.40	786.42
402.59	854.30
402.78	880.04
402.97	922.17
403.17	861.32
403.36	866.00
403.55	856.64
403.74	931.53
403.93	905.79
404.13	983.02
404.32	912.81
404.51	901.11
404.70	819.19
404.89	891.74
405.09	866.00
405.28	938.55
405.47	908.13
405.66	938.55
405.85	1020.47
406.05	926.85
406.24	924.51
406.43	943.24
406.62	1060.26
406.81	1034.52
407.00	994.73
407.20	1069.62
407.39	1022.81
407.58	1102.39
407.77	1088.35
407.96	1074.31
408.15	1086.01
408.34	1128.14
408.54	1118.78
408.73	1032.18
408.92	1093.03
409.11	1165.59
409.30	1093.03
409.49	1107.07
409.68	1064.94
409.87	1184.31
410.07	1200.69
410.26	1184.31
410.45	1165.59
410.64	1158.57
410.83	1181.97
411.02	1200.69
411.21	1231.12
411.40	1254.53
411.59	1310.70
411.78	1371.55
411.98	1224.10
412.17	1268.57
412.36	1254.53
412.55	1287.29
412.74	1387.94
412.93	1341.13
413.12	1296.66
413.31	1406.66
413.50	1383.26
413.69	1455.81
413.88	1355.17
414.07	1432.41
414.26	1399.64
414.45	1467.52
414.64	1523.69
414.83	1516.67
415.02	1514.33
415.22	1629.01
415.41	1591.56
415.60	1579.86
415.79	1563.48
415.98	1607.95
416.17	1612.63
416.36	1654.76
416.55	1675.82
416.74	1650.08
416.93	1717.95
417.12	1692.21
417.31	1767.10
417.50	1682.85
417.69	1811.57
417.88	1834.98
418.07	1753.06
418.26	1809.23
418.45	1760.08
418.64	1734.34
418.83	1729.66
419.02	1661.78
419.21	1804.55
419.39	1877.11
419.58	1837.32
419.77	1839.66
419.96	1863.07
420.15	1863.07
420.34	1856.04
420.53	1886.47
420.72	2005.84
420.91	2005.84
421.10	1895.83
421.29	1893.49
421.48	2010.52
421.67	1921.58
421.86	1914.56
422.05	1970.73
422.24	1968.39
422.43	1872.43
422.61	1952.01
422.80	1984.77
422.99	2043.29
423.18	2092.44
423.37	2054.99
423.56	2097.12
423.75	1954.35
423.94	2024.56
424.13	1863.07
424.32	1888.81
424.50	2139.25
424.69	2001.16
424.88	2054.99
425.07	1900.52
425.26	2036.27
425.45	2057.33
425.64	1963.71
425.83	2022.22
426.01	2012.86
426.20	1970.73
426.39	2057.33
426.58	2003.50
426.77	2165.00
426.96	2113.50
427.15	2083.08
427.33	2169.68
427.52	2160.31
427.71	2153.29
427.90	2190.74
428.09	2179.04
428.28	2174.36
428.46	2223.51
428.65	2326.49
428.84	2289.04
429.03	2267.98
429.22	2106.48
429.40	2272.66
429.59	2298.41
429.78	2136.91
429.97	2183.72
430.16	2267.98
430.34	2265.64
430.53	2490.33
430.72	2333.51
430.91	2403.73
431.10	2279.68
431.28	2408.41
431.47	2459.90
431.66	2335.85
431.85	2443.52
432.03	2422.45
432.22	2445.86
432.41	2424.80
432.60	2541.82
432.79	2408.41
432.97	2424.80
433.16	2502.03
433.35	2422.45
433.54	2427.14
433.72	2457.56
433.91	2504.37
434.10	2527.78
434.28	2429.48
434.47	2518.42
434.66	2581.61
434.85	2572.25
435.03	2595.65
435.22	2527.78
435.41	2668.21
435.59	2612.04
435.78	2600.34
435.97	2644.81
436.16	2614.38
436.34	2616.72
436.53	2686.94
436.72	2778.22
436.90	2841.41
437.09	2689.28
437.28	2565.23
437.46	2651.83
437.65	2764.17
437.84	2705.66
438.02	2715.02
438.21	2923.33
438.40	2799.28
438.58	2904.60
438.77	2944.39
438.96	2855.45
439.14	2918.65
439.33	2911.63
439.52	2993.55
439.70	2960.78
439.89	3084.83
440.08	3016.95
440.26	3094.19
440.45	3105.89
440.63	2993.55
440.82	3321.22
441.01	3096.53
441.19	3122.27
441.38	3131.64
441.57	3052.06
441.75	3218.24
441.94	3410.16
442.12	3286.11
442.31	3269.73
442.50	3206.53
442.68	3295.47
442.87	3403.14
443.05	3522.51
443.24	3363.35
443.43	3314.20
443.61	3473.36
443.80	3552.93
443.98	3344.63
444.17	3246.32
444.35	3372.71
444.54	3513.14
444.73	3492.08
444.91	3466.33
445.10	3379.73
445.28	3480.38
445.47	3321.22
445.65	3389.10
445.84	3576.34
446.02	3555.27
446.21	3330.58
446.39	3536.55
446.58	3454.63
446.77	3468.67
446.95	3372.71
447.14	3585.70
447.32	3595.06
447.51	3506.12
447.69	3513.14
447.88	3461.65
448.06	3545.91
448.25	3508.46
448.43	3478.04
448.62	3538.89
448.80	3527.19
448.99	3644.21
449.17	3604.42
449.36	3536.55
449.54	3679.32
449.73	3672.30
449.91	3719.11
450.10	3639.53
450.28	3808.05
450.46	3754.22
450.65	3796.35
450.83	3751.88
451.02	3786.99
451.20	3784.65
451.39	3875.93
451.57	3768.26
451.76	3836.14
451.94	3817.41
452.13	3887.63
452.31	3808.05
452.49	3866.56
452.68	3749.54
452.86	3754.22
453.05	3840.82
453.23	3974.23
453.42	3882.95
453.60	3939.12
453.78	4049.13
453.97	3843.16
454.15	4042.11
454.34	4079.55
454.52	4063.17
454.70	4035.08
454.89	3997.64
455.07	3962.53
455.26	3927.42
455.44	4142.75
455.62	4009.34
455.81	4088.92
455.99	4016.36
456.17	4245.73
456.36	4210.62
456.54	4180.20
456.73	4367.44
456.91	4304.25
457.09	4269.14
457.28	4248.07
457.46	4224.67
457.64	4409.57
457.83	4395.53
458.01	4231.69
458.19	4299.56
458.38	4210.62
458.56	4500.85
458.74	4458.72
458.93	4360.42
459.11	4528.94
459.29	4423.61
459.48	4564.04
459.66	4435.32
459.84	4475.10
460.03	4585.11
460.21	4610.86
460.39	4524.26
460.57	4608.51
460.76	4552.34
460.94	4744.27
461.12	4528.94
461.31	4681.07
461.49	4713.84
461.67	4655.33
461.85	4849.59
462.04	4718.52
462.22	4903.42
462.40	4767.67
462.59	4692.77
462.77	4695.11
462.95	4842.57
463.13	4652.98
463.32	4842.57
463.50	4889.38
463.68	4868.31
463.86	4814.48
464.05	4865.97
464.23	4835.55
464.41	4987.68
464.59	4826.18
464.78	5032.15
464.96	5008.75
465.14	4987.68
465.32	4943.21
465.50	4994.70
465.69	4910.44
465.87	4950.23
466.05	4905.76
466.23	5032.15
466.41	5081.30
466.60	5308.34
466.78	5043.85
466.96	5130.45
467.14	5118.75
467.32	5090.67
467.51	5071.94
467.69	5071.94
467.87	5153.86
468.05	5310.68
468.23	5078.96
468.41	5252.16
468.60	5142.16
468.78	5303.65
468.96	5233.44
469.14	5282.59
469.32	5214.71
469.50	5186.63
469.69	5385.57
469.87	5329.40
470.05	5486.22
470.23	5570.48
470.41	5343.44
470.59	5448.77
470.77	5352.81
470.95	5437.06
471.14	5678.14
471.32	5495.58
471.50	5671.12
471.68	5617.29
471.86	5584.52
472.04	5701.54
472.22	5844.32
472.40	5650.05
472.58	5678.14
472.77	5811.55
472.95	5874.74
473.13	6225.82
473.31	5626.65
473.49	5944.96
473.67	5907.51
473.85	5823.25
474.03	6155.61
474.21	5909.85
474.39	6106.46
474.57	6087.73
474.75	6141.57
474.93	6190.72
475.12	6216.46
475.30	6223.48
475.48	6115.82
475.66	6289.02
475.84	6253.91
476.02	6413.07
476.20	6338.17
476.38	6403.71
476.56	6602.65
476.74	6679.89
476.92	6647.12
477.10	6499.67
477.28	6855.43
477.46	6597.97
477.64	6724.36
477.82	6691.59
478.00	7007.56
478.18	6834.36
478.36	7061.40
478.54	7122.25
478.72	7126.93
478.90	7227.57
479.08	7138.63
479.26	7119.91
479.44	7208.85
479.62	7435.88
479.80	7541.21
479.98	7431.20
480.16	7658.23
480.34	7501.42
480.52	7660.57
480.70	7761.22
480.88	7674.62
481.06	7667.60
481.24	7644.19
481.41	7742.49
481.59	7833.77
481.77	7992.93
481.95	8170.81
482.13	8243.37
482.31	8168.47
482.49	8491.46
482.67	8170.81
482.85	8386.14
483.03	8402.52
483.21	8414.23
483.39	8596.79
483.57	8667.00
483.74	8587.43
483.92	8627.21
484.10	8648.28
484.28	8802.75
484.46	9048.51
484.64	9153.84
484.82	9034.47
485.00	9055.53
485.18	9315.33
485.35	9591.52
485.53	9558.75
485.71	9439.38
485.89	9830.25
486.07	9715.56
486.25	9392.57
486.43	9767.06
486.61	9720.24
486.78	9830.25
486.96	9926.21
487.14	10202.40
487.32	10129.84
487.50	10354.53
487.68	10157.92
487.85	10473.90
488.03	10359.21
488.21	10670.50
488.39	10684.55
488.57	10817.96
488.75	10621.35
488.92	11145.63
489.10	10789.87
489.28	11075.42
489.46	10986.47
489.64	11096.48
489.81	11393.73
489.99	11372.66
490.17	11435.86
490.35	11536.50
490.53	11506.07
490.70	11616.08
490.88	11536.50
491.06	11812.68
491.24	11698.00
491.41	11948.43
491.59	11812.68
491.77	12257.39
491.95	11936.73
492.13	12161.42
492.30	12414.20
492.48	12351.01
492.66	12512.50
492.84	12685.70
493.01	12699.75
493.19	12486.76
493.37	12486.76
493.54	12816.77
493.72	12821.45
493.90	13004.02
494.08	13015.72
494.25	12950.18
494.43	13397.23
494.61	13284.88
494.79	13327.01
494.96	13362.12
495.14	13392.55
495.32	13619.58
495.49	13650.00
495.67	13703.84
495.85	13638.30
496.02	13696.82
496.20	13865.33
496.38	14127.47
496.55	14160.24
496.73	14413.02
496.91	14448.13
497.09	14303.01
497.26	14389.61
497.44	14183.65
497.62	14204.71
497.79	14705.59
497.97	14752.40
498.14	14473.87
498.32	15061.35
498.50	14883.47
498.67	15084.75
498.85	14899.85
499.03	15044.96
499.20	14799.21
499.38	15051.99
499.56	15370.30
499.73	15400.72
499.91	15391.36
500.08	15517.75
500.26	15302.42
500.44	15304.76
500.61	15667.55
500.79	15557.54
500.97	15646.48
501.14	15833.72
501.32	16095.86
501.49	15901.60
501.67	15854.79
501.84	16009.26
502.02	15889.90
502.20	16360.34
502.37	16079.48
502.55	16250.34
502.72	16208.21
502.90	16304.17
503.07	16343.96
503.25	16559.29
503.43	16456.31
503.60	16535.88
503.78	16489.07
503.95	16727.81
504.13	16423.54
504.30	16704.40
504.48	16568.65
504.65	16919.73
504.83	16795.68
505.01	16980.59
505.18	17074.21
505.36	17034.42
505.53	17228.68
505.71	17032.08
505.88	16931.44
506.06	17158.47
506.23	17256.77
506.41	17224.00
506.58	17446.35
506.76	17514.23
506.93	17500.19
507.11	17598.49
507.28	17610.19
507.46	17575.08
507.63	17745.94
507.81	17839.56
507.98	17853.61
508.16	17792.75
508.33	17724.88
508.50	17895.74
508.68	18134.47
508.85	18356.82
509.03	18188.30
509.20	18272.56
509.38	18429.38
509.55	18368.52
509.73	18162.56
509.90	18382.57
510.08	18555.77
510.25	18162.56
510.42	18801.52
510.60	18785.14
510.77	18560.45
510.95	18829.61
511.12	18614.28
511.30	18593.22
511.47	19058.98
511.64	18820.25
511.82	18956.00
511.99	19061.32
512.17	19002.81
512.34	19253.25
512.51	19281.33
512.69	19108.13
512.86	19335.17
513.04	19412.40
513.21	19365.59
513.38	19323.46
513.56	19480.28
513.73	19658.16
513.90	19583.26
514.08	19669.86
514.25	19903.92
514.43	20081.80
514.60	20065.41
514.77	19854.76
514.95	20126.27
515.12	19892.21
515.29	19674.54
515.47	20088.82
515.64	20030.30
515.81	20098.18
515.99	20222.23
516.16	20357.98
516.33	20449.26
516.51	20292.44
516.68	20135.63
516.85	20395.43
517.03	20746.51
517.20	20765.23
517.37	20491.39
517.54	20624.80
517.72	20418.83
517.89	20699.70
518.06	20563.95
518.24	20992.26
518.41	20606.08
518.58	20819.07
518.75	20737.15
518.93	21067.16
519.10	21128.02
519.27	21008.65
519.45	20765.23
519.62	20924.39
519.79	21411.22
519.96	21001.63
520.14	21174.83
520.31	21193.55
520.48	21298.88
520.65	21385.47
520.83	21289.51
521.00	21659.32
521.17	21582.08
521.34	21434.63
521.52	21420.58
521.69	21626.55
521.86	21788.05
522.03	21851.24
522.20	21593.78
522.38	21867.63
522.55	21907.41
522.72	22218.71
522.89	22010.40
523.07	21984.65
523.24	21979.97
523.41	22394.25
523.58	22001.04
523.75	22153.17
523.92	22008.06
524.10	22127.42
524.27	22108.70
524.44	22419.99
524.61	22810.86
524.78	22590.85
524.96	22740.64
525.13	22745.33
525.30	22464.46
525.47	22291.26
525.64	22565.10
525.81	22766.39
525.98	22817.88
526.16	22670.43
526.33	22967.68
526.50	23065.98
526.67	22974.70
526.84	22974.70
527.01	22799.16
527.18	22878.74
527.36	23208.75
527.53	23143.22
527.70	23332.80
527.87	23447.49
528.04	23386.63
528.21	23330.46
528.38	23068.32
528.55	23625.37
528.72	23697.92
528.89	23285.99
529.07	23353.87
529.24	23590.26
529.41	23433.44
529.58	23522.38
529.75	23508.34
529.92	23634.73
530.09	23859.42
530.26	23880.49
530.43	23482.59
530.60	23501.32
530.77	23707.29
530.94	23728.35
531.11	23906.23
531.28	23690.90
531.46	23697.92
531.63	24173.05
531.80	23845.38
531.97	24311.14
532.14	24222.20
532.31	23819.63
532.48	24180.07
532.65	23709.63
532.82	23740.05
532.99	24491.37
533.16	23962.40
533.33	24264.33
533.50	24533.50
533.67	24163.69
533.84	24098.16
534.01	24163.69
534.18	24423.49
534.35	24306.46
534.52	24575.62
534.69	24702.01
534.86	24606.05
535.03	24699.67
535.20	24900.96
535.37	24577.97
535.54	25027.35
535.71	24259.65
535.88	24968.84
536.05	24868.19
536.22	25046.07
536.38	25118.63
536.55	25039.05
536.72	25301.19
536.89	24774.57
537.06	25219.27
537.23	25165.44
537.40	25209.91
537.57	25177.14
537.74	25223.95
537.91	25476.73
538.08	25432.26
538.25	25469.71
538.42	25207.57
538.59	25240.34
538.75	25455.67
538.92	25282.47
539.09	25486.09
539.26	25560.99
539.43	25605.46
539.60	25696.74
539.77	25722.49
539.94	25663.97
540.11	25441.62
540.28	25647.59
540.44	25729.51
540.61	25937.82
540.78	25802.07
540.95	25666.31
541.12	25715.47
541.29	25591.42
541.46	25589.08
541.62	25869.94
541.79	25930.80
541.96	25687.38
542.13	25811.43
542.30	25979.95
542.47	26223.36
542.63	26452.73
542.80	26380.18
542.97	26349.75
543.14	26394.22
543.31	26038.46
543.48	26431.67
543.64	26403.58
543.81	26686.79
543.98	26558.06
544.15	26464.44
544.32	26581.46
544.48	26682.11
544.65	26373.16
544.82	26403.58
544.99	26171.87
545.16	26494.86
545.32	26649.34
545.49	26831.90
545.66	27091.70
545.83	26848.29
546.00	26897.44
546.16	26850.63
546.33	26714.87
546.50	26778.07
546.67	26728.92
546.83	26583.80
547.00	26859.99
547.17	26864.67
547.34	26780.41
547.50	27402.99
547.67	27283.62
547.84	26820.20
548.00	27264.90
548.17	27229.79
548.34	27290.65
548.51	26885.73
548.67	27459.16
548.84	27704.92
549.01	27236.81
549.18	26855.31
549.34	27044.89
549.51	27503.64
549.68	27410.01
549.84	27414.69
550.01	27494.27
550.18	27601.94
550.34	27534.06
550.51	27740.03
550.68	27821.95
550.84	27356.18
551.01	27793.86
551.18	27538.74
551.34	27377.25
551.51	27517.68
551.68	27229.79
551.84	27615.98
552.01	27695.56
552.18	27943.66
552.34	27913.23
552.51	27730.67
552.68	27756.41
552.84	27658.11
553.01	27772.80
553.18	27892.16
553.34	27999.83
553.51	27835.99
553.67	27985.79
553.84	28320.48
554.01	28203.46
554.17	28067.70
554.34	27985.79
554.51	28208.14
554.67	28121.54
554.84	28189.41
555.00	28439.85
555.17	28053.66
555.33	28245.58
555.50	28037.28
555.67	27969.40
555.83	28011.53
556.00	28388.36
556.16	28257.29
556.33	28268.99
556.50	28250.27
556.66	28709.01
556.83	28582.62
556.99	28549.85
557.16	28591.98
557.32	28575.60
557.49	28641.14
557.65	28140.26
557.82	28168.35
557.98	28638.80
558.15	28666.88
558.32	28650.50
558.48	28650.50
558.65	28561.56
558.81	28362.61
558.98	28865.83
559.14	28886.89
559.31	28507.72
559.47	28760.50
559.64	28615.39
559.80	28687.95
559.97	28938.38
560.13	28739.44
560.30	28664.54
560.46	29034.35
560.63	28893.91
560.79	28489.00
560.96	28978.17
561.12	28638.80
561.29	28987.53
561.45	28739.44
561.61	28931.36
561.78	29102.22
561.94	28910.30
562.11	28919.66
562.27	29120.95
562.44	28891.57
562.60	28865.83
562.77	28774.55
562.93	28924.34
563.10	29142.01
563.26	29109.24
563.42	29287.12
563.59	29390.11
563.75	29181.80
563.92	29411.17
564.08	28903.28
564.24	29134.99
564.41	28643.48
564.57	29724.80
564.74	28854.12
564.90	29127.97
565.07	29500.11
565.23	29118.60
565.39	29308.19
565.56	28790.93
565.72	29151.37
565.88	29181.80
566.05	29193.50
566.21	29296.49
566.38	29483.73
566.54	29074.13
566.70	29319.89
566.87	29565.65
567.03	29741.19
567.19	29575.01
567.36	29839.49
567.52	29486.07
567.68	29738.85
567.85	29139.67
568.01	29582.03
568.17	29369.04
568.34	29551.60
568.50	29537.56
568.66	29729.48
568.83	29750.55
568.99	29539.90
569.15	29455.64
569.32	29406.49
569.48	29312.87
569.64	29685.01
569.81	29308.19
569.97	29376.06
570.13	29827.79
570.30	29434.58
570.46	29724.80
570.62	29731.83
570.78	29118.60
570.95	29750.55
571.11	29312.87
571.27	29050.73
571.43	29467.34
571.60	29528.20
571.76	29404.15
571.92	29670.97
572.09	29970.56
572.25	29610.12
572.41	29715.44
572.57	29902.68
572.74	29673.31
572.90	29537.56
573.06	29481.39
573.22	29703.74
573.38	29523.52
573.55	29668.63
573.71	29682.67
573.87	29874.60
574.03	29979.92
574.20	29752.89
574.36	29586.71
574.52	29703.74
574.68	29570.33
574.84	29670.97
575.01	30031.41
575.17	29879.28
575.33	29614.80
575.49	29628.84
575.65	29813.74
575.82	30115.67
575.98	29689.70
576.14	29799.70
576.30	30125.04
576.46	29663.95
576.62	29855.87
576.79	29748.21
576.95	29656.93
577.11	29846.51
577.27	29862.90
577.43	29944.81
577.59	29729.48
577.75	30000.99
577.92	29603.10
578.08	29544.58
578.24	29780.98
578.40	29879.28
578.56	29748.21
578.72	30038.44
578.88	30204.61
579.04	30188.23
579.21	29792.68
579.37	29848.85
579.53	29914.39
579.69	29434.58
579.85	29816.08
580.01	29785.66
580.17	29827.79
580.33	29734.17
580.49	30005.67
580.65	29675.65
580.82	29963.54
580.98	29720.12
581.14	29935.45
581.30	29876.94
581.46	29708.42
581.62	29507.13
581.78	29813.74
581.94	29699.06
582.10	29888.64
582.26	29703.74
582.42	30256.11
582.58	30052.48
582.74	29701.40
582.90	29893.32
583.06	30181.21
583.22	30012.69
583.38	29895.66
583.54	29776.30
583.70	29998.65
583.86	29708.42
584.02	29944.81
584.18	30284.19
584.34	29914.39
584.50	30113.33
584.66	30113.33
584.82	30082.91
584.98	30286.53
585.14	30169.51
585.30	29336.27
585.46	29972.90
585.62	29699.06
585.78	30066.52
585.94	29888.64
586.10	29968.22
586.26	30167.16
586.42	30244.40
586.58	30120.35
586.74	30068.86
586.90	30139.08
587.06	29914.39
587.22	29998.65
587.38	29907.37
587.54	30213.98
587.70	30485.48
587.86	30295.89
588.02	30305.26
588.18	30305.26
588.34	30057.16
588.49	30338.02
588.65	29916.73
588.81	29905.02
588.97	30148.44
589.13	30309.94
589.29	30160.14
589.45	30043.12
589.61	30281.85
589.77	30258.45
589.93	30370.79
590.08	30368.45
590.24	30213.98
590.40	30515.90
590.56	30471.43
590.72	30176.53
590.88	29982.26
591.04	30022.05
591.20	30492.50
591.35	30174.19
591.51	30426.96
591.67	30419.94
591.83	30670.38
591.99	30618.89
592.15	30843.58
592.31	30429.30
592.46	30277.17
592.62	30024.39
592.78	30246.74
592.94	30309.94
593.10	30169.51
593.26	30792.09
593.41	30300.58
593.57	30527.61
593.73	30583.78
593.89	31019.12
594.05	30529.95
594.20	30602.50
594.36	30279.51
594.52	30211.64
594.68	30593.14
594.84	30251.42
594.99	30391.86
595.15	30504.20
595.31	30473.78
595.47	30469.09
595.62	30387.18
595.78	30728.89
595.94	30593.14
596.10	30541.65
596.25	30284.19
596.41	30284.19
596.57	30183.55
596.73	30431.65
596.88	30480.80
597.04	30569.74
597.20	30918.48
597.36	30841.24
597.51	30506.54
597.67	30225.68
597.83	30331.00
597.99	30607.19
598.14	30403.56
598.30	30288.87
598.46	30452.71
598.61	30794.43
598.77	30689.10
598.93	30391.86
599.09	30087.59
599.24	30927.84
599.40	30483.14
599.56	30639.95
599.71	30513.56
599.87	30991.03
600.03	30029.07
600.18	30265.47
600.34	30803.79
600.50	30213.98
600.65	30501.86
600.81	31136.15
600.97	30560.37
601.12	30813.15
601.28	30630.59
601.44	30895.07
601.59	30567.40
601.75	30775.70
601.91	30616.55
602.06	30471.43
602.22	30607.19
602.37	30368.45
602.53	30635.27
602.69	30480.80
602.84	30677.40
603.00	30574.42
603.16	31035.50
603.31	30799.11
603.47	30448.03
603.62	30473.78
603.78	30487.82
603.94	30764.00
604.09	30583.78
604.25	30796.77
604.40	30649.32
604.56	30614.21
604.71	30471.43
604.87	30841.24
605.03	31072.95
605.18	30588.46
605.34	30661.02
605.49	30403.56
605.65	30546.33
605.80	30176.53
605.96	30471.43
606.12	30635.27
606.27	30778.04
606.43	30253.76
606.58	30590.80
606.74	30651.66
606.89	30749.96
607.05	30656.34
607.20	30494.84
607.36	30623.57
607.51	30717.19
607.67	30279.51
607.82	30216.32
607.98	30305.26
608.13	30590.80
608.29	30506.54
608.44	30476.12
608.60	30008.01
608.75	30628.25
608.91	30487.82
609.06	30347.39
609.22	30384.83
609.37	30267.81
609.53	30064.18
609.68	30277.17
609.84	30384.83
609.99	30321.64
610.15	30307.60
610.30	30464.41
610.46	30494.84
610.61	30576.76
610.76	30169.51
610.92	30213.98
611.07	30604.84
611.23	30267.81
611.38	30164.82
611.54	30008.01
611.69	29993.97
611.84	29900.34
612.00	30103.97
612.15	30075.88
612.31	30293.55
612.46	30597.82
612.62	30319.30
612.77	30345.05
612.92	30174.19
613.08	30045.46
613.23	30068.86
613.39	29860.55
613.54	29699.06
613.69	30113.33
613.85	29991.62
614.00	29862.90
614.15	29841.83
614.31	29905.02
614.46	30223.34
614.62	29926.09
614.77	30146.10
614.92	30300.58
615.08	30349.73
615.23	30251.42
615.38	30045.46
615.54	29921.41
615.69	29919.07
615.84	29593.73
616.00	29663.95
616.15	29743.53
616.30	29659.27
616.46	29603.10
616.61	29633.52
616.76	29926.09
616.92	29954.18
617.07	29640.54
617.22	29984.60
617.37	29610.12
617.53	29855.87
617.68	29617.14
617.83	29778.64
617.99	29418.19
618.14	29467.34
618.29	29736.51
618.45	29549.26
618.60	29610.12
618.75	29631.18
618.90	29649.91
619.06	29525.86
619.21	29434.58
619.36	29710.76
619.51	29352.66
619.67	29315.21
619.82	29006.26
619.97	29593.73
620.12	29174.78
620.28	29324.57
620.43	29582.03
620.58	29575.01
620.73	29731.83
620.89	29820.77
621.04	29706.08
621.19	29507.13
621.34	29350.32
621.49	29127.97
621.65	29242.65
621.80	29280.10
621.95	29120.95
622.10	29296.49
622.25	29043.71
622.41	29188.82
622.56	29099.88
622.71	29369.04
622.86	29179.46
623.01	29153.71
623.16	29219.25
623.32	29434.58
623.47	29111.58
623.62	28854.12
623.77	29247.33
623.92	28985.19
624.07	28910.30
624.23	29064.77
624.38	29296.49
624.53	28779.23
624.68	29244.99
624.83	29511.81
624.98	29270.74
625.13	29362.02
625.29	29062.43
625.44	29097.54
625.59	28596.67
625.74	28936.04
625.89	28709.01
626.04	28936.04
626.19	28453.89
626.34	28643.48
626.49	28343.89
626.65	28713.69
626.80	28762.84
626.95	28758.16
627.10	28809.65
627.25	28683.27
627.40	28231.54
627.55	28556.88
627.70	28692.63
627.85	28205.80
628.00	28694.97
628.15	28465.60
628.30	28268.99
628.45	28243.24
628.60	28261.97
628.76	28395.38
628.91	28650.50
629.06	28437.51
629.21	28673.90
629.36	28524.11
629.51	28407.08
629.66	28332.18
629.81	28320.48
629.96	28465.60
630.11	28229.20
630.26	28013.87
630.41	27814.93
630.56	28191.75
630.71	27969.40
630.86	28203.46
631.01	27824.29
631.16	28177.71
631.31	28196.43
631.46	28142.60
631.61	28048.98
631.76	28084.09
631.91	27901.53
632.06	28243.24
632.21	27728.33
632.36	27761.09
632.51	27772.80
632.66	28060.68
632.81	27711.94
632.96	28109.83
633.10	28002.17
633.25	28217.50
633.40	27892.16
633.55	27931.95
633.70	27740.03
633.85	27625.34
634.00	27679.18
634.15	28065.36
634.30	27651.09
634.45	27578.53
634.60	27545.76
634.75	28018.55
634.90	27854.72
635.05	27758.75
635.19	28119.20
635.34	27906.21
635.49	27807.90
635.64	27749.39
635.79	27175.96
635.94	27513.00
636.09	27597.26
636.24	27620.66
636.39	27901.53
636.53	27854.72
636.68	27386.61
636.83	27239.15
636.98	27480.23
637.13	27714.28
637.28	27475.55
637.43	27630.02
637.57	27531.72
637.72	27061.27
637.87	27426.40
638.02	27388.95
638.17	27510.66
638.32	27215.75
638.46	27065.96
638.61	27101.06
638.76	26939.57
638.91	27115.11
639.06	27215.75
639.20	27536.40
639.35	27356.18
639.50	27056.59
639.65	27220.43
639.80	27054.25
639.94	27152.55
640.09	27206.39
640.24	27271.92
640.39	26958.29
640.54	26831.90
640.68	27110.43
640.83	26941.91
640.98	26979.36
641.13	26815.52
641.27	27112.77
641.42	27379.59
641.57	26787.43
641.72	27037.87
641.86	27042.55
642.01	26717.22
642.16	26810.84
642.31	26796.79
642.45	27065.96
642.60	26464.44
642.75	26319.32
642.90	26707.85
643.04	26616.57
643.19	26632.96
643.34	26974.67
643.48	26661.04
643.63	26824.88
643.78	26888.07
643.93	26724.24
644.07	26625.93
644.22	26962.97
644.37	26466.78
644.51	26600.19
644.66	26438.69
644.81	26426.99
644.95	26504.23
645.10	26611.89
645.25	26387.20
645.39	26679.77
645.54	26485.50
645.69	26565.08
645.83	26541.68
645.98	26480.82
646.13	26478.48
646.27	26518.27
646.42	26490.18
646.57	26361.45
646.71	26356.77
646.86	26211.66
647.00	26572.10
647.15	26396.56
647.30	26246.77
647.44	26047.82
647.59	26345.07
647.74	26331.03
647.88	26244.43
648.03	26363.79
648.17	26185.91
648.32	26340.39
648.47	26408.26
648.61	26288.90
648.76	26204.64
648.90	26029.10
649.05	26352.09
649.20	26129.74
649.34	26256.13
649.49	26019.74
649.63	26108.68
649.78	25958.88
649.92	25993.99
650.07	26082.93
650.21	25874.62
650.36	26085.27
650.51	25940.16
650.65	26085.27
650.80	25919.09
650.94	25818.45
651.09	25895.69
651.23	26188.25
651.38	25720.15
651.52	25638.23
651.67	25865.26
651.81	25891.01
651.96	25776.32
652.10	26045.48
652.25	25710.78
652.39	25544.61
652.54	25649.93
652.68	25912.07
652.83	25989.31
652.97	25734.19
653.12	25811.43
653.26	25504.82
653.41	25724.83
653.55	25556.31
653.70	25252.04
653.84	25427.58
653.99	25209.91
654.13	25427.58
654.27	25486.09
654.42	25633.55
654.56	25717.81
654.71	25738.87
654.85	25226.29
655.00	25596.10
655.14	25825.47
655.29	25069.48
655.43	25469.71
655.57	25593.76
655.72	25560.99
655.86	25436.94
656.01	25467.37
656.15	25528.22
656.30	25270.76
656.44	25570.35
656.58	25418.22
656.73	25509.50
656.87	25490.77
657.01	25284.81
657.16	25156.08
657.30	25631.21
657.45	25242.68
657.59	25303.53
657.73	25048.41
657.88	25249.70
658.02	25001.60
658.16	25010.96
658.31	25109.27
658.45	24905.64
658.60	24776.91
658.74	24987.56
658.88	24685.63
659.03	24716.06
659.17	25212.25
659.31	24704.35
659.46	24788.61
659.60	25172.46
659.74	24870.53
659.89	24676.27
660.03	24315.83
660.17	24907.98
660.32	24601.37
660.46	24638.82
660.60	24327.53
660.74	24460.94
660.89	24416.47
661.03	24386.04
661.17	24425.83
661.32	24154.33
661.46	24666.91
661.60	24486.68
661.74	24589.67
661.89	24245.61
662.03	24306.46
662.17	24540.52
662.31	24308.80
662.46	24388.38
662.60	24077.09
662.74	24404.77
662.88	24187.10
663.03	23906.23
663.17	23901.55
663.31	23613.66
663.45	23873.46
663.60	23887.51
663.74	24184.76
663.88	24077.09
664.02	23828.99
664.17	24397.74
664.31	23536.43
664.45	23943.68
664.59	23608.98
664.73	24126.24
664.88	23623.03
665.02	23583.24
665.16	23477.91
665.30	23534.09
665.44	23707.29
665.59	23321.10
665.73	23594.94
665.87	23166.62
666.01	23646.43
666.15	23576.22
666.29	23246.20
666.44	23693.24
666.58	23302.37
666.72	23398.34
666.86	23592.60
667.00	23360.89
667.14	23065.98
667.28	23014.49
667.43	23105.77
667.57	22834.27
667.71	23150.24
667.85	23056.62
667.99	23016.83
668.13	23009.81
668.27	23007.47
668.41	23005.13
668.56	22995.76
668.70	22773.41
668.84	23110.45
668.98	23091.73
669.12	22588.51
669.26	22850.65
669.40	22623.62
669.54	22721.92
669.68	22314.67
669.82	22824.90
669.96	22661.07
670.10	22450.42
670.25	22309.99
670.39	22157.85
670.53	22391.91
670.67	22202.32
670.81	22450.42
670.95	22363.82
671.09	21865.28
671.23	22382.54
671.37	22265.52
671.51	22073.59
671.65	22466.80
671.79	22321.69
671.93	22129.77
672.07	22176.58
672.21	22029.12
672.35	21575.06
672.49	22036.14
672.63	21919.12
672.77	21493.14
672.91	21621.87
673.05	21572.72
673.19	21577.40
673.33	21790.39
673.47	21394.84
673.61	21537.61
673.75	21748.26
673.89	21476.76
674.03	21373.77
674.17	20954.82
674.31	21212.28
674.45	21025.03
674.59	21561.02
674.73	21331.64
674.87	20793.32
675.01	21170.15
675.15	20959.50
675.29	20919.71
675.43	21020.35
675.56	21041.42
675.70	20905.66
675.84	20999.29
675.98	20285.42
676.12	20753.53
676.26	21223.98
676.40	21013.33
676.54	20666.93
676.68	20409.47
676.82	20446.92
676.96	20383.73
677.10	20126.27
677.23	20451.60
677.37	20341.60
677.51	20306.49
677.65	20439.90
677.79	19833.70
677.93	20081.80
678.07	19730.72
678.21	19714.33
678.34	19786.89
678.48	19466.24
678.62	19651.14
678.76	19857.10
678.90	19875.83
679.04	19346.87
679.18	19576.24
679.31	19389.00
679.45	19400.70
679.59	19108.13
679.73	19030.90
679.87	19021.53
680.00	19194.73
680.14	19157.28
680.28	18934.93
680.42	19255.59
680.56	19129.20
680.70	18963.02
680.83	18991.11
680.97	19054.30
681.11	18761.73
681.25	18972.38
681.39	18888.12
681.52	18693.86
681.66	18469.17
681.80	18590.88
681.94	18527.68
682.07	18279.58
682.21	18441.08
682.35	18045.53
682.49	18286.61
682.62	17853.61
682.76	17895.74
682.90	18015.10
683.04	17994.04
683.17	18012.76
683.31	17923.82
683.45	17748.28
683.59	17696.79
683.72	18090.00
683.86	17579.76
684.00	17558.70
684.13	17523.59
684.27	17577.42
684.41	17380.82
684.55	17371.46
684.68	17312.94
684.82	17252.09
684.96	17198.26
685.09	17130.38
685.23	17001.65
685.37	17233.36
685.50	17202.94
685.64	17312.94
685.78	17027.40
685.91	17015.69
686.05	16805.05
686.19	16926.75
686.32	16783.98
686.46	16468.01
686.60	16624.83
686.73	16711.42
686.87	16308.85
687.01	16285.45
687.14	16566.31
687.28	16304.17
687.42	16175.44
687.55	16395.45
687.69	16273.74
687.82	15962.45
687.96	16135.65
688.10	16044.37
688.23	16100.55
688.37	15910.96
688.50	16194.17
688.64	15775.21
688.78	15875.85
688.91	15840.75
689.05	15674.57
689.18	15742.44
689.32	15353.91
689.46	15559.88
689.59	15386.68
689.73	15630.10
689.86	15311.78
690.00	15255.61
690.13	15293.06
690.27	15314.13
690.41	15150.29
690.54	14946.66
690.68	15227.53
690.81	14981.77
690.95	15140.93
691.08	15075.39
691.22	15185.40
691.35	14831.97
691.49	14941.98
691.62	14827.29
691.76	14644.73
691.89	14614.30
692.03	14497.28
692.16	14281.95
692.30	14263.22
692.43	14377.91
692.57	14118.11
692.70	14417.70
692.84	14120.45
692.97	14073.64
693.11	14029.17
693.24	14040.87
693.38	14129.81
693.51	14085.34
693.65	13886.40
693.78	13891.08
693.92	13872.36
694.05	13427.65
694.19	13540.00
694.32	13642.98
694.45	13408.93
694.59	13411.27
694.72	13490.85
694.86	13422.97
694.99	13212.32
695.13	13041.46
695.26	13549.36
695.39	13153.81
695.53	13242.75
695.66	13156.15
695.80	12795.71
695.93	13116.36
696.07	12975.93
696.20	13165.51
696.33	13125.72
696.47	12905.71
696.60	12870.61
696.73	12631.87
696.87	12648.26
697.00	12720.81
697.14	12449.31
697.27	12489.10
697.40	12465.69
697.54	12280.79
697.67	12372.07
697.80	12032.69
697.94	12196.53
698.07	11920.35
698.21	12175.47
698.34	12175.47
698.47	12168.45
698.61	12121.63
698.74	12163.76
698.87	12283.13
699.01	11950.78
699.14	11831.41
699.27	11824.39
699.40	11728.42
699.54	11843.11
699.67	11765.87
699.80	11585.65
699.94	11763.53
700.07	11520.12
700.20	11253.30
700.34	11194.78
700.47	11211.17
700.60	11419.47
700.73	11225.21
700.87	11239.25
701.00	11110.52
701.13	11112.86
701.26	11000.52
701.40	11246.27
701.53	10993.50
701.66	10771.15
701.79	10864.77
701.93	10909.24
702.06	10773.49
702.19	10583.90
702.32	10679.86
702.46	10516.03
702.59	10520.71
702.72	10754.76
702.85	10333.47
702.99	10363.89
703.12	10427.09
703.25	10384.96
703.38	10347.51
703.51	10251.55
703.65	10272.61
703.78	10296.02
703.91	10094.73
704.04	10216.44
704.17	10141.54
704.31	9998.77
704.44	9867.70
704.57	10101.75
704.70	9818.55
704.83	9755.35
704.96	9673.43
705.10	9717.90
705.23	9619.60
>>>>>End Processed Spectral Data<<<<<
