SpectraSuite Data File
++++++++++++++++++++++++++++++++++++
Date: Fri Oct 18 13:58:29 GMT-05:00 2013
User: bianchi
Dark Spectrum Present: No
Reference Spectrum Present: No
Number of Sampled Component Spectra: 1
Spectrometers: USB2+H05261
Integration Time (usec): 50000 (USB2+H05261)
Spectra Averaged: 1 (USB2+H05261)
Boxcar Smoothing: 0 (USB2+H05261)
Correct for Electrical Dark: No (USB2+H05261)
Strobe/Lamp Enabled: No (USB2+H05261)
Correct for Detector Non-linearity: No (USB2+H05261)
Correct for Stray Light: No (USB2+H05261)
Number of Pixels in Processed Spectrum: 2048
>>>>>Begin Processed Spectral Data<<<<<
365.73	0.00
365.92	0.00
366.12	0.00
366.32	0.00
366.52	0.00
366.72	0.00
366.91	0.00
367.11	0.00
367.31	0.00
367.51	0.00
367.70	0.00
367.90	0.00
368.10	0.00
368.30	0.00
368.49	0.00
368.69	0.00
368.89	0.00
369.09	0.00
369.28	0.00
369.48	0.00
369.68	0.00
369.87	0.00
370.07	0.00
370.27	0.00
370.47	0.00
370.66	128.73
370.86	56.17
371.06	145.11
371.25	138.09
371.45	86.60
371.65	84.26
371.84	210.65
372.04	142.77
372.24	133.41
372.44	138.09
372.63	131.07
372.83	234.05
373.03	189.58
373.22	107.66
373.42	212.99
373.62	269.16
373.81	210.65
374.01	205.97
374.21	212.99
374.40	280.86
374.60	182.56
374.79	215.33
374.99	184.90
375.19	299.59
375.38	292.57
375.58	262.14
375.78	285.55
375.97	257.46
376.17	271.50
376.37	203.63
376.56	252.78
376.76	234.05
376.95	234.05
377.15	313.63
377.35	196.60
377.54	243.42
377.74	236.39
377.93	299.59
378.13	220.01
378.33	315.97
378.52	252.78
378.72	280.86
378.91	297.25
379.11	360.44
379.31	280.86
379.50	344.06
379.70	355.76
379.89	294.91
380.09	292.57
380.28	334.70
380.48	280.86
380.68	278.52
380.87	318.31
381.07	304.27
381.26	273.84
381.46	311.29
381.65	362.78
381.85	341.72
382.04	346.40
382.24	322.99
382.43	332.36
382.63	273.84
382.83	360.44
383.02	306.61
383.22	379.17
383.41	320.65
383.61	360.44
383.80	388.53
384.00	379.17
384.19	330.02
384.39	365.12
384.58	360.44
384.78	383.85
384.97	355.76
385.17	348.74
385.36	418.96
385.56	409.59
385.75	362.78
385.95	425.98
386.14	442.36
386.34	393.21
386.53	390.87
386.72	372.15
386.92	423.64
387.11	334.70
387.31	440.02
387.50	271.50
387.70	468.11
387.89	444.70
388.09	411.93
388.28	395.55
388.48	355.76
388.67	423.64
388.86	505.56
389.06	435.34
389.25	463.43
389.45	437.68
389.64	367.46
389.84	433.00
390.03	454.06
390.22	496.19
390.42	496.19
390.61	535.98
390.81	451.72
391.00	491.51
391.19	514.92
391.39	486.83
391.58	444.70
391.78	524.28
391.97	538.32
392.16	545.34
392.36	578.11
392.55	517.26
392.75	617.90
392.94	533.64
393.13	606.20
393.33	538.32
393.52	500.87
393.71	538.32
393.91	526.62
394.10	617.90
394.29	580.45
394.49	568.75
394.68	587.47
394.88	512.58
395.07	627.26
395.26	655.35
395.46	552.37
395.65	606.20
395.84	690.46
396.04	662.37
396.23	674.07
396.42	688.12
396.62	596.84
396.81	732.59
397.00	566.41
397.19	599.18
397.39	669.39
397.58	709.18
397.77	655.35
397.97	671.73
398.16	636.63
398.35	671.73
398.55	655.35
398.74	645.99
398.93	751.31
399.12	617.90
399.32	676.41
399.51	741.95
399.70	716.20
399.90	734.93
400.09	657.69
400.28	779.40
400.47	727.91
400.67	844.93
400.86	795.78
401.05	828.55
401.24	802.80
401.44	786.42
401.63	830.89
401.82	779.40
402.01	842.59
402.21	844.93
402.40	772.38
402.59	805.14
402.78	929.19
402.97	891.74
403.17	863.66
403.36	915.15
403.55	910.47
403.74	835.57
403.93	866.00
404.13	898.77
404.32	985.37
404.51	959.62
404.70	910.47
404.89	954.94
405.09	929.19
405.28	964.30
405.47	945.58
405.66	945.58
405.85	966.64
406.05	992.39
406.24	910.47
406.43	999.41
406.62	980.68
406.81	992.39
407.00	1004.09
407.20	987.71
407.39	987.71
407.58	992.39
407.77	1078.99
407.96	1060.26
408.15	1146.86
408.34	1064.94
408.54	1118.78
408.73	1095.37
408.92	1240.48
409.11	1149.20
409.30	1118.78
409.49	1151.54
409.68	1109.41
409.87	1144.52
410.07	1191.33
410.26	1203.04
410.45	1214.74
410.64	1153.88
410.83	1125.80
411.02	1217.08
411.21	1125.80
411.40	1116.44
411.59	1179.63
411.78	1275.59
411.98	1315.38
412.17	1165.59
412.36	1191.33
412.55	1343.47
412.74	1322.40
412.93	1390.28
413.12	1458.15
413.31	1406.66
413.50	1217.08
413.69	1390.28
413.88	1380.92
414.07	1448.79
414.26	1390.28
414.45	1502.62
414.64	1465.18
414.83	1516.67
415.02	1554.12
415.22	1469.86
415.41	1519.01
415.60	1556.46
415.79	1540.07
415.98	1572.84
416.17	1570.50
416.36	1605.61
416.55	1668.80
416.74	1614.97
416.93	1614.97
417.12	1717.95
417.31	1703.91
417.50	1694.55
417.69	1689.87
417.88	1753.06
418.07	1823.28
418.26	1736.68
418.45	1785.83
418.64	1851.36
418.83	1776.47
419.02	1778.81
419.21	1820.94
419.39	1881.79
419.58	1764.76
419.77	1767.10
419.96	1774.13
420.15	1760.08
420.34	1764.76
420.53	1916.90
420.72	1888.81
420.91	1895.83
421.10	1994.14
421.29	2019.88
421.48	1900.52
421.67	1937.96
421.86	1867.75
422.05	1956.69
422.24	2071.37
422.43	1886.47
422.61	1933.28
422.80	1970.73
422.99	1975.41
423.18	1982.43
423.37	1996.48
423.56	1942.64
423.75	1984.77
423.94	1937.96
424.13	1842.00
424.32	1900.52
424.50	1989.46
424.69	2012.86
424.88	2132.23
425.07	1942.64
425.26	1930.94
425.45	1977.75
425.64	2059.67
425.83	2069.03
426.01	2069.03
426.20	2057.33
426.39	2026.90
426.58	2033.93
426.77	2108.82
426.96	2165.00
427.15	2040.95
427.33	2076.06
427.52	2244.57
427.71	2165.00
427.90	2026.90
428.09	2136.91
428.28	2300.75
428.46	2176.70
428.65	2207.13
428.84	2242.23
429.03	2277.34
429.22	2256.28
429.40	2249.25
429.59	2228.19
429.78	2141.59
429.97	2169.68
430.16	2246.91
430.34	2298.41
430.53	2326.49
430.72	2282.02
430.91	2277.34
431.10	2303.09
431.28	2303.09
431.47	2380.32
431.66	2413.09
431.85	2392.03
432.03	2401.39
432.22	2511.39
432.41	2366.28
432.60	2462.24
432.79	2305.43
432.97	2424.80
433.16	2401.39
433.35	2392.03
433.54	2445.86
433.72	2569.91
433.91	2635.44
434.10	2616.72
434.28	2572.25
434.47	2576.93
434.66	2516.08
434.85	2534.80
435.03	2586.29
435.22	2534.80
435.41	2605.02
435.59	2607.36
435.78	2609.70
435.97	2623.74
436.16	2672.89
436.34	2712.68
436.53	2691.62
436.72	2827.37
436.90	2686.94
437.09	2750.13
437.28	2675.23
437.46	2792.26
437.65	2750.13
437.84	2644.81
438.02	2712.68
438.21	2663.53
438.40	2724.38
438.58	2953.76
438.77	2876.52
438.96	2871.84
439.14	2932.69
439.33	2925.67
439.52	2946.73
439.70	2937.37
439.89	2970.14
440.08	3000.57
440.26	2953.76
440.45	2972.48
440.63	3066.10
440.82	3122.27
441.01	3089.51
441.19	3234.62
441.38	3201.85
441.57	3199.51
441.75	3225.26
441.94	3276.75
442.12	3229.94
442.31	3346.97
442.50	3293.13
442.68	3265.05
442.87	3328.24
443.05	3330.58
443.24	3375.05
443.43	3375.05
443.61	3398.46
443.80	3433.57
443.98	3281.43
444.17	3258.03
444.35	3466.33
444.54	3459.31
444.73	3414.84
444.91	3389.10
445.10	3356.33
445.28	3363.35
445.47	3541.23
445.65	3421.86
445.84	3410.16
446.02	3428.88
446.21	3417.18
446.39	3478.04
446.58	3433.57
446.77	3506.12
446.95	3384.41
447.14	3524.85
447.32	3449.95
447.51	3578.68
447.69	3471.01
447.88	3665.28
448.06	3480.38
448.25	3452.29
448.43	3583.36
448.62	3555.27
448.80	3543.57
448.99	3508.46
449.17	3524.85
449.36	3534.21
449.54	3637.19
449.73	3754.22
449.91	3772.94
450.10	3709.75
450.28	3742.52
450.46	3721.45
450.65	3569.32
450.83	3831.46
451.02	3721.45
451.20	3740.18
451.39	3742.52
451.57	3599.74
451.76	3627.83
451.94	3768.26
452.13	3868.91
452.31	3911.04
452.49	3740.18
452.68	3847.84
452.86	3733.15
453.05	3913.38
453.23	3915.72
453.42	3915.72
453.60	3796.35
453.78	3768.26
453.97	4016.36
454.15	3749.54
454.34	3953.16
454.52	3904.01
454.70	3953.16
454.89	4007.00
455.07	3953.16
455.26	4056.15
455.44	4100.62
455.62	4058.49
455.81	4107.64
455.99	4093.60
456.17	4208.28
456.36	4156.79
456.54	4133.39
456.73	4198.92
456.91	4161.47
457.09	4105.30
457.28	4334.67
457.46	4264.46
457.64	4308.93
457.83	4264.46
458.01	4329.99
458.19	4379.14
458.38	4271.48
458.56	4484.47
458.74	4465.74
458.93	4367.44
459.11	4524.26
459.29	4339.35
459.48	4451.70
459.66	4430.63
459.84	4575.75
460.03	4491.49
460.21	4652.98
460.39	4507.87
460.57	4444.68
460.76	4547.66
460.94	4531.28
461.12	4554.68
461.31	4575.75
461.49	4723.20
461.67	4564.04
461.85	4702.14
462.04	4645.96
462.22	4741.93
462.40	4809.80
462.59	4746.61
462.77	4737.24
462.95	4777.03
463.13	4767.67
463.32	4692.77
463.50	4723.20
463.68	4739.58
463.86	4828.53
464.05	4835.55
464.23	4709.16
464.41	4966.62
464.59	4741.93
464.78	4910.44
464.96	4973.64
465.14	4975.98
465.32	5081.30
465.50	5022.79
465.69	4833.21
465.87	4929.17
466.05	5043.85
466.23	4884.70
466.41	5060.24
466.60	5090.67
466.78	5174.92
466.96	4980.66
467.14	5039.17
467.32	5083.64
467.51	5228.76
467.69	4957.25
467.87	5090.67
468.05	5132.79
468.23	5128.11
468.41	5156.20
468.60	5179.61
468.78	5226.42
468.96	4961.94
469.14	5268.55
469.32	5203.01
469.50	5022.79
469.69	5238.12
469.87	5385.57
470.05	5474.51
470.23	5352.81
470.41	5334.08
470.59	5298.97
470.77	5514.30
470.95	5474.51
471.14	5502.60
471.32	5397.28
471.50	5497.92
471.68	5549.41
471.86	5439.40
472.04	5579.84
472.22	5762.40
472.40	5727.29
472.58	5664.10
472.77	5675.80
472.95	5813.89
473.13	6083.05
473.31	5731.97
473.49	5928.58
473.67	5783.46
473.85	5771.76
474.03	5987.09
474.21	6019.86
474.39	5867.72
474.57	6015.18
474.75	6129.86
474.93	6202.42
475.12	6146.25
475.30	6090.07
475.48	6146.25
475.66	6204.76
475.84	6270.30
476.02	6317.11
476.20	6317.11
476.38	6321.79
476.56	6574.56
476.74	6450.52
476.92	6686.91
477.10	6497.33
477.28	6658.82
477.46	6616.69
477.64	6661.16
477.82	6825.00
478.00	7040.33
478.18	6935.01
478.36	7059.06
478.54	7000.54
478.72	7101.19
478.90	7056.72
479.08	7101.19
479.26	7293.11
479.44	7166.72
479.62	7194.81
479.80	7236.94
479.98	7407.80
480.16	7314.17
480.34	7449.93
480.52	7466.31
480.70	7573.97
480.88	7548.23
481.06	7527.16
481.24	7730.79
481.41	7833.77
481.59	7655.89
481.77	7988.25
481.95	7962.50
482.13	7894.63
482.31	7847.82
482.49	8236.35
482.67	8074.85
482.85	8203.58
483.03	8306.56
483.21	8557.00
483.39	8650.62
483.57	8514.87
483.74	8585.08
483.92	8557.00
484.10	8549.98
484.28	8865.95
484.46	8755.94
484.64	8945.53
484.82	8947.87
485.00	8959.57
485.18	9207.67
485.35	9348.10
485.53	9305.97
485.71	9561.09
485.89	9528.32
486.07	9425.34
486.25	9540.02
486.43	9668.75
486.61	9640.67
486.78	9874.72
486.96	9933.23
487.14	9860.68
487.32	9870.04
487.50	10115.80
487.68	10003.45
487.85	10246.87
488.03	10281.97
488.21	10455.17
488.39	10609.65
488.57	10782.85
488.75	10633.05
488.92	10658.80
489.10	10796.89
489.28	10820.30
489.46	10977.11
489.64	11023.92
489.81	11019.24
489.99	10970.09
490.17	11094.14
490.35	11510.75
490.53	11466.28
490.70	11445.22
490.88	11454.58
491.06	11508.41
491.24	11510.75
491.41	11779.92
491.59	11800.98
491.77	11847.79
491.95	12135.68
492.13	12252.70
492.30	12100.57
492.48	12194.19
492.66	12451.65
492.84	12168.45
493.01	12575.70
493.19	12556.97
493.37	12517.18
493.54	12582.72
493.72	12894.01
493.90	12564.00
494.08	12910.40
494.25	13231.05
494.43	13144.45
494.61	13221.69
494.79	13078.91
494.96	13055.51
495.14	13373.82
495.32	13413.61
495.49	13301.26
495.67	13336.37
495.85	13785.76
496.02	13912.14
496.20	13685.11
496.38	13619.58
496.55	14050.24
496.73	13877.04
496.91	13834.91
497.09	14127.47
497.26	14295.99
497.44	14197.69
497.62	14464.51
497.79	14520.68
497.97	14368.55
498.14	14274.93
498.32	14586.22
498.50	14595.58
498.67	14848.36
498.85	14726.65
499.03	14810.91
499.20	14991.13
499.38	14892.83
499.56	15070.71
499.73	15262.63
499.91	15236.89
500.08	15197.10
500.26	15154.97
500.44	15199.44
500.61	15499.03
500.79	15552.86
500.97	15454.56
501.14	15761.17
501.32	15901.60
501.49	15459.24
501.67	15665.21
501.84	15793.94
502.02	15800.96
502.20	16107.57
502.37	15941.39
502.55	16137.99
502.72	16219.91
502.90	16058.42
503.07	15943.73
503.25	16088.84
503.43	16233.96
503.60	16189.49
503.78	16430.56
503.95	16367.37
504.13	16578.01
504.30	16411.84
504.48	16453.97
504.65	16606.10
504.83	16709.08
505.01	17027.40
505.18	17275.49
505.36	16947.82
505.53	16879.94
505.71	16910.37
505.88	16929.09
506.06	16840.15
506.23	16961.86
506.41	17214.64
506.58	17270.81
506.76	17476.78
506.93	17598.49
507.11	17186.55
507.28	17397.20
507.46	17259.11
507.63	17652.32
507.81	17799.77
507.98	17509.55
508.16	17752.96
508.33	17816.16
508.50	17872.33
508.68	17542.32
508.85	18256.18
509.03	18038.51
509.20	18029.15
509.38	18223.41
509.55	18401.29
509.73	18333.42
509.90	18420.02
510.08	18108.72
510.25	18274.90
510.42	18356.82
510.60	18384.91
510.77	18359.16
510.95	18710.24
511.12	18633.00
511.30	18560.45
511.47	18630.66
511.64	18853.02
511.82	19124.52
511.99	18998.13
512.17	18869.40
512.34	18700.88
512.51	18981.74
512.69	19056.64
512.86	19461.55
513.04	19117.50
513.21	19431.13
513.38	19278.99
513.56	19466.24
513.73	19152.60
513.90	19522.41
514.08	19426.45
514.25	19494.32
514.43	19536.45
514.60	19527.09
514.77	19730.72
514.95	19683.91
515.12	19566.88
515.29	19775.19
515.47	19695.61
515.64	19812.63
515.81	20245.63
515.99	19789.23
516.16	20084.14
516.33	20077.12
516.51	20374.36
516.68	20322.87
516.85	20058.39
517.03	20348.62
517.20	20437.56
517.37	20514.80
517.54	20512.46
517.72	20491.39
517.89	20121.59
518.06	20313.51
518.24	20634.16
518.41	20566.29
518.58	20484.37
518.75	20699.70
518.93	20545.22
519.10	20856.51
519.27	21151.42
519.45	20702.04
519.62	20720.76
519.79	20903.32
519.96	20886.94
520.14	21020.35
520.31	20985.24
520.48	21130.36
520.65	21160.78
520.83	21270.79
521.00	21214.62
521.17	21036.74
521.34	21207.59
521.52	21291.85
521.69	21289.51
521.86	21549.31
522.03	21673.36
522.20	21788.05
522.38	21689.74
522.55	21441.65
522.72	21490.80
522.89	21589.10
523.07	22089.98
523.24	22085.30
523.41	21722.51
523.58	21961.25
523.75	22197.64
523.92	21656.98
524.10	21757.62
524.27	21881.67
524.44	22211.68
524.61	22286.58
524.78	22382.54
524.96	22412.97
525.13	22497.23
525.30	22199.98
525.47	22302.96
525.64	22345.09
525.81	22424.67
525.98	22459.78
526.16	22576.81
526.33	22537.02
526.50	22815.54
526.67	22438.72
526.84	22728.94
527.01	22441.06
527.18	22698.52
527.36	22625.96
527.53	22860.01
527.70	23271.95
527.87	23016.83
528.04	23241.52
528.21	23033.21
528.38	23005.13
528.55	23285.99
528.72	23070.66
528.89	23236.84
529.07	23384.29
529.24	23190.03
529.41	23356.21
529.58	23075.34
529.75	23136.20
529.92	23208.75
530.09	23337.48
530.26	23480.25
530.43	23496.64
530.60	23433.44
530.77	23793.89
530.94	23824.31
531.11	23414.72
531.28	23597.28
531.46	23709.63
531.63	23709.63
531.80	23873.46
531.97	23999.85
532.14	24144.97
532.31	23735.37
532.48	23889.85
532.65	23864.10
532.82	23768.14
532.99	23927.30
533.16	24126.24
533.33	24400.08
533.50	24170.71
533.67	24191.78
533.84	23988.15
534.01	24416.47
534.18	23964.75
534.35	24250.29
534.52	24257.31
534.69	23999.85
534.86	24477.32
535.03	24507.75
535.20	24470.30
535.37	24463.28
535.54	24568.60
535.71	24290.08
535.88	24599.03
536.05	24699.67
536.22	24702.01
536.38	24898.62
536.55	24865.85
536.72	24973.52
536.89	25165.44
537.06	24355.61
537.23	24805.00
537.40	24816.70
537.57	24816.70
537.74	24891.60
537.91	25064.80
538.08	25191.19
538.25	24994.58
538.42	25165.44
538.59	24971.18
538.75	25153.74
538.92	24999.26
539.09	25228.63
539.26	25025.01
539.43	25340.98
539.60	25448.64
539.77	25476.73
539.94	25352.68
540.11	25006.28
540.28	25118.63
540.44	25357.36
540.61	25659.29
540.78	24875.21
540.95	25422.90
541.12	25743.55
541.29	25315.23
541.46	25380.77
541.62	25376.09
541.79	25802.07
541.96	25193.53
542.13	25584.40
542.30	25872.28
542.47	25593.76
542.63	25989.31
542.80	25923.77
542.97	26195.28
543.14	25839.51
543.31	25846.54
543.48	26122.72
543.64	26085.27
543.81	26450.39
543.98	26272.51
544.15	26455.08
544.32	26600.19
544.48	26464.44
544.65	26504.23
544.82	26136.76
544.99	26232.72
545.16	26270.17
545.32	26340.39
545.49	26309.96
545.66	26466.78
545.83	26204.64
546.00	26298.26
546.16	26665.72
546.33	26593.17
546.50	26068.89
546.67	26614.23
546.83	26185.91
547.00	26558.06
547.17	26656.36
547.34	26773.39
547.50	26457.42
547.67	26906.80
547.84	26920.84
548.00	26876.37
548.17	27040.21
548.34	26806.16
548.51	26810.84
548.67	27005.10
548.84	27051.91
549.01	26857.65
549.18	26892.76
549.34	27140.85
549.51	27164.26
549.68	26981.70
549.84	26895.10
550.01	27365.54
550.18	27173.62
550.34	27524.70
550.51	27110.43
550.68	27321.07
550.84	26773.39
551.01	27386.61
551.18	27253.20
551.34	27126.81
551.51	27292.99
551.68	27175.96
551.84	27496.61
552.01	27473.21
552.18	27379.59
552.34	27292.99
552.51	27482.57
552.68	27337.46
552.84	27707.26
553.01	27559.81
553.18	27480.23
553.34	27618.32
553.51	27770.46
553.67	27585.55
553.84	27936.63
554.01	28315.80
554.17	28020.89
554.34	27644.07
554.51	27756.41
554.67	27892.16
554.84	27714.28
555.00	27798.54
555.17	27721.30
555.33	28088.77
555.50	27992.81
555.67	28044.30
555.83	27765.78
556.00	27831.31
556.16	28144.94
556.33	27978.76
556.50	27824.29
556.66	28238.56
556.83	28105.15
556.99	28379.00
557.16	28795.61
557.32	28215.16
557.49	28301.76
557.65	27819.61
557.82	27871.10
557.98	27915.57
558.15	28074.73
558.32	28774.55
558.48	28313.46
558.65	28290.06
558.81	28166.01
558.98	28311.12
559.14	28044.30
559.31	27915.57
559.47	28521.77
559.64	28409.42
559.80	28823.70
559.97	28563.90
560.13	28196.43
560.30	28168.35
560.46	28631.77
560.63	28538.15
560.79	28489.00
560.96	28683.27
561.12	28615.39
561.29	28294.74
561.45	28386.02
561.61	28823.70
561.78	28687.95
561.94	28697.31
562.11	28720.71
562.27	28563.90
562.44	28739.44
562.60	28421.13
562.77	28315.80
562.93	28341.55
563.10	28762.84
563.26	28554.54
563.42	28961.79
563.59	28830.72
563.75	28685.61
563.92	28744.12
564.08	28622.41
564.24	28540.49
564.41	28423.47
564.57	28917.32
564.74	28699.65
564.90	28917.32
565.07	28854.12
565.23	28957.11
565.39	28985.19
565.56	29191.16
565.72	28865.83
565.88	28657.52
566.05	28816.68
566.21	28591.98
566.38	28898.59
566.54	28959.45
566.70	28823.70
566.87	29111.58
567.03	28910.30
567.19	29273.08
567.36	29170.10
567.52	29209.89
567.68	29118.60
567.85	28865.83
568.01	29345.64
568.17	28835.40
568.34	29064.77
568.50	29254.36
568.66	29209.89
568.83	29198.18
568.99	28863.49
569.15	29467.34
569.32	29057.75
569.48	28816.68
569.64	29247.33
569.81	29060.09
569.97	28905.62
570.13	29280.10
570.30	29085.84
570.46	29612.46
570.62	28896.25
570.78	29088.18
570.95	28968.81
571.11	29312.87
571.27	29181.80
571.43	29340.96
571.60	29289.46
571.76	29247.33
571.92	29504.79
572.09	29198.18
572.25	29420.53
572.41	29259.04
572.57	29383.09
572.74	29535.22
572.90	29422.87
573.06	29298.83
573.22	29673.31
573.38	29216.91
573.55	29230.95
573.71	29537.56
573.87	29432.24
574.03	29247.33
574.20	29167.76
574.36	29502.45
574.52	29305.85
574.68	29404.15
574.84	29364.36
575.01	29511.81
575.17	29376.06
575.33	29184.14
575.49	29237.97
575.65	29607.78
575.82	29158.39
575.98	29607.78
576.14	29296.49
576.30	29373.72
576.46	28971.15
576.62	29500.11
576.79	29472.03
576.95	29216.91
577.11	29689.70
577.27	29680.33
577.43	29905.02
577.59	29729.48
577.75	29347.98
577.92	28945.41
578.08	29450.96
578.24	29387.77
578.40	29530.54
578.56	29355.00
578.72	29310.53
578.88	30050.14
579.04	29366.70
579.21	29369.04
579.37	29654.59
579.53	29790.34
579.69	29333.93
579.85	29273.08
580.01	29472.03
580.17	29200.52
580.33	29448.62
580.49	29474.37
580.65	29647.57
580.82	29642.88
580.98	29841.83
581.14	29448.62
581.30	29579.69
581.46	29205.20
581.62	29706.08
581.78	29530.54
581.94	29839.49
582.10	29373.72
582.26	29682.67
582.42	29537.56
582.58	29610.12
582.74	29614.80
582.90	29888.64
583.06	29731.83
583.22	29422.87
583.38	29680.33
583.54	29406.49
583.70	29359.68
583.86	29432.24
584.02	29556.28
584.18	29780.98
584.34	29935.45
584.50	29820.77
584.66	29689.70
584.82	29759.91
584.98	29603.10
585.14	29460.32
585.30	29600.76
585.46	29380.74
585.62	29237.97
585.78	29544.58
585.94	29137.33
586.10	29771.61
586.26	29521.18
586.42	29656.93
586.58	29495.43
586.74	29502.45
586.90	29385.43
587.06	29366.70
587.22	29509.47
587.38	29446.28
587.54	29862.90
587.70	29694.38
587.86	30000.99
588.02	29905.02
588.18	30045.46
588.34	29921.41
588.49	29853.53
588.65	29802.04
588.81	29584.37
588.97	29855.87
589.13	29839.49
589.29	29769.27
589.45	30000.99
589.61	30235.04
589.77	29949.50
589.93	29776.30
590.08	30260.79
590.24	30195.25
590.40	30284.19
590.56	30185.89
590.72	29785.66
590.88	29757.57
591.04	29968.22
591.20	30221.00
591.35	30024.39
591.51	30518.25
591.67	29928.43
591.83	30115.67
591.99	30078.22
592.15	30052.48
592.31	30211.64
592.46	29954.18
592.62	30066.52
592.78	30213.98
592.94	30150.78
593.10	29780.98
593.26	29680.33
593.41	30260.79
593.57	30118.01
593.73	30316.96
593.89	30536.97
594.05	30066.52
594.20	29989.28
594.36	29919.07
594.52	29567.99
594.68	30185.89
594.84	29958.86
594.99	30078.22
595.15	30192.91
595.31	30326.32
595.47	30195.25
595.62	30244.40
595.78	29890.98
595.94	29851.19
596.10	30309.94
596.25	30206.95
596.41	29947.15
596.57	29965.88
596.73	29855.87
596.88	30338.02
597.04	30345.05
597.20	30139.08
597.36	30529.95
597.51	30148.44
597.67	29766.93
597.83	30164.82
597.99	30239.72
598.14	30150.78
598.30	30225.68
598.46	30253.76
598.61	29977.58
598.77	30490.16
598.93	30242.06
599.09	30017.37
599.24	30417.60
599.40	30649.32
599.56	30181.21
599.71	30101.63
599.87	30347.39
600.03	29958.86
600.18	30087.59
600.34	29575.01
600.50	29930.77
600.65	30050.14
600.81	30288.87
600.97	30300.58
601.12	30478.46
601.28	30127.38
601.44	30356.75
601.59	30541.65
601.75	30101.63
601.91	30024.39
602.06	30249.08
602.22	30368.45
602.37	30118.01
602.53	29900.34
602.69	30529.95
602.84	30363.77
603.00	30225.68
603.16	30059.50
603.31	30157.80
603.47	29949.50
603.62	30068.86
603.78	29984.60
603.94	29837.15
604.09	30012.69
604.25	30080.56
604.40	30092.27
604.56	30216.32
604.71	30118.01
604.87	30441.01
605.03	30190.57
605.18	30181.21
605.34	30361.43
605.49	29902.68
605.65	30263.13
605.80	30073.54
605.96	29996.31
606.12	29745.87
606.27	30218.66
606.43	30221.00
606.58	30197.59
606.74	30078.22
606.89	30316.96
607.05	29984.60
607.20	30162.48
607.36	29841.83
607.51	29975.24
607.67	30031.41
607.82	29968.22
607.98	29940.13
608.13	29900.34
608.29	29926.09
608.44	30108.65
608.60	30518.25
608.75	30059.50
608.91	30082.91
609.06	29933.11
609.22	30059.50
609.37	29890.98
609.53	29670.97
609.68	29771.61
609.84	29621.82
609.99	29759.91
610.15	29656.93
610.30	30008.01
610.46	29839.49
610.61	29905.02
610.76	30132.06
610.92	29556.28
611.07	29699.06
611.23	29572.67
611.38	30000.99
611.54	29755.23
611.69	29806.72
611.84	29699.06
612.00	29895.66
612.15	29509.47
612.31	29921.41
612.46	29717.78
612.62	30019.71
612.77	29418.19
612.92	29759.91
613.08	29689.70
613.23	29886.30
613.39	29467.34
613.54	29415.85
613.69	29670.97
613.85	29605.44
614.00	29745.87
614.15	29614.80
614.31	29542.24
614.46	29993.97
614.62	29668.63
614.77	29685.01
614.92	29902.68
615.08	29308.19
615.23	29509.47
615.38	29575.01
615.54	29434.58
615.69	29591.39
615.84	29081.16
616.00	29289.46
616.15	29390.11
616.30	29467.34
616.46	29610.12
616.61	29404.15
616.76	29596.07
616.92	29455.64
617.07	29539.90
617.22	29195.84
617.37	29413.51
617.53	29596.07
617.68	29617.14
617.83	28922.00
617.99	29181.80
618.14	29373.72
618.29	29443.94
618.45	29020.30
618.60	29434.58
618.75	29343.30
618.90	29376.06
619.06	29565.65
619.21	29142.01
619.36	29095.20
619.51	28882.21
619.67	29024.98
619.82	28917.32
619.97	29209.89
620.12	28737.10
620.28	28968.81
620.43	29493.09
620.58	29151.37
620.73	29240.31
620.89	28809.65
621.04	29237.97
621.19	29237.97
621.34	29130.31
621.49	29216.91
621.65	28648.16
621.80	28690.29
621.95	28739.44
622.10	28989.88
622.25	28767.52
622.41	28882.21
622.56	28573.26
622.71	28596.67
622.86	28751.14
623.01	28772.21
623.16	28552.20
623.32	28870.51
623.47	28400.06
623.62	28950.09
623.77	28725.39
623.92	28975.83
624.07	28711.35
624.23	28545.17
624.38	28732.42
624.53	28676.24
624.68	28877.53
624.83	29010.94
624.98	28732.42
625.13	28418.78
625.29	28659.86
625.44	28486.66
625.59	28379.00
625.74	28226.86
625.89	28407.08
626.04	28056.00
626.19	28294.74
626.34	28404.74
626.49	28264.31
626.65	28292.40
626.80	28713.69
626.95	28168.35
627.10	28512.41
627.25	28212.82
627.40	27831.31
627.55	28091.11
627.70	28084.09
627.85	27985.79
628.00	28173.03
628.15	28074.73
628.30	27744.71
628.45	28084.09
628.60	27901.53
628.76	28116.86
628.91	27906.21
629.06	28285.37
629.21	28044.30
629.36	28046.64
629.51	28191.75
629.66	27875.78
629.81	27601.94
629.96	27702.58
630.11	27847.69
630.26	27690.88
630.41	27974.08
630.56	27861.74
630.71	27442.78
630.86	28027.92
631.01	27644.07
631.16	28070.04
631.31	27672.15
631.46	27931.95
631.61	27810.25
631.76	27782.16
631.91	27735.35
632.06	27391.29
632.21	27461.51
632.36	27784.50
632.51	27524.70
632.66	27784.50
632.81	27470.87
632.96	27798.54
633.10	27913.23
633.25	27969.40
633.40	27740.03
633.55	27644.07
633.70	27182.98
633.85	27105.74
634.00	27538.74
634.15	27859.40
634.30	27285.97
634.45	27440.44
634.60	27494.27
634.75	27620.66
634.90	27531.72
635.05	27583.21
635.19	27520.02
635.34	27419.38
635.49	27351.50
635.64	27302.35
635.79	27424.06
635.94	27297.67
636.09	27227.45
636.24	26951.27
636.39	27227.45
636.53	27377.25
636.68	27175.96
636.83	27372.57
636.98	27199.37
637.13	27007.44
637.28	27077.66
637.43	27215.75
637.57	27105.74
637.72	26801.47
637.87	27264.90
638.02	27197.02
638.17	27211.07
638.32	26642.32
638.46	26689.13
638.61	26920.84
638.76	26658.70
638.91	26637.64
639.06	26881.05
639.20	27185.32
639.35	27040.21
639.50	26742.96
639.65	27304.69
639.80	27220.43
639.94	26892.76
640.09	26948.93
640.24	26749.98
640.39	26911.48
640.54	26822.54
640.68	26672.74
640.83	26604.87
640.98	26359.11
641.13	26445.71
641.27	26859.99
641.42	26499.55
641.57	26658.70
641.72	26766.37
641.86	26696.15
642.01	26532.31
642.16	26338.05
642.31	26068.89
642.45	26775.73
642.60	26012.71
642.75	26153.15
642.90	26401.24
643.04	26356.77
643.19	26579.12
643.34	26448.05
643.48	26670.40
643.63	26309.96
643.78	26431.67
643.93	26417.63
644.07	26478.48
644.22	26204.64
644.37	26508.91
644.51	26181.23
644.66	26122.72
644.81	26448.05
644.95	26562.74
645.10	25722.49
645.25	26111.02
645.39	26331.03
645.54	26031.44
645.69	25750.57
645.83	26129.74
645.98	26153.15
646.13	26192.94
646.27	26122.72
646.42	26316.98
646.57	26347.41
646.71	26164.85
646.86	25888.67
647.00	25888.67
647.15	25734.19
647.30	25883.98
647.44	25783.34
647.59	26300.60
647.74	26132.08
647.88	25961.22
648.03	26302.94
648.17	26185.91
648.32	26082.93
648.47	25891.01
648.61	25781.00
648.76	26092.29
648.90	25764.62
649.05	26073.57
649.20	25710.78
649.34	25872.28
649.49	25876.96
649.63	25535.24
649.78	25575.03
649.92	25411.20
650.07	25535.24
650.21	25495.46
650.36	25752.91
650.51	25596.10
650.65	25596.10
650.80	25380.77
650.94	25652.27
651.09	25338.64
651.23	25525.88
651.38	25619.50
651.52	25345.66
651.67	25172.46
651.81	25542.27
651.96	25663.97
652.10	25387.79
652.25	25441.62
652.39	25832.49
652.54	25628.87
652.68	25717.81
652.83	25631.21
652.97	25879.30
653.12	25139.69
653.26	25174.80
653.41	25275.45
653.55	25469.71
653.70	25109.27
653.84	25296.51
653.99	25046.07
654.13	25195.87
654.27	24994.58
654.42	25326.94
654.56	25069.48
654.71	25427.58
654.85	25350.34
655.00	24900.96
655.14	25472.05
655.29	25296.51
655.43	25261.40
655.57	25202.89
655.72	25067.14
655.86	25039.05
656.01	25109.27
656.15	25039.05
656.30	24755.85
656.44	24751.17
656.58	24938.41
656.73	25050.75
656.87	24802.66
657.01	24837.76
657.16	25130.33
657.30	25249.70
657.45	24826.06
657.59	24847.13
657.73	24795.64
657.88	24615.41
658.02	24844.79
658.16	24933.73
658.31	24797.98
658.45	24467.96
658.60	24503.07
658.74	24568.60
658.88	24519.45
659.03	24320.51
659.17	24620.10
659.31	24556.90
659.46	24617.75
659.60	24765.21
659.74	24404.77
659.89	24606.05
660.03	24381.36
660.17	24432.85
660.32	24144.97
660.46	23941.34
660.60	24149.65
660.74	24079.43
660.89	24451.58
661.03	23686.22
661.17	24121.56
661.32	24261.99
661.46	24219.86
661.60	24149.65
661.74	24325.19
661.89	24030.28
662.03	24154.33
662.17	24095.82
662.31	23953.04
662.46	23999.85
662.60	24039.64
662.74	23791.55
662.88	23751.76
663.03	23583.24
663.17	23646.43
663.31	23735.37
663.45	23669.84
663.60	23501.32
663.74	23473.23
663.88	23358.55
664.02	23449.83
664.17	23653.45
664.31	23744.73
664.45	23342.16
664.59	23543.45
664.73	23496.64
664.88	23318.76
665.02	23068.32
665.16	23124.49
665.30	23033.21
665.44	23328.12
665.59	23143.22
665.73	22965.34
665.87	22799.16
666.01	22963.00
666.15	23384.29
666.29	23271.95
666.44	22787.46
666.58	22948.95
666.72	22895.12
666.86	22979.38
667.00	23213.43
667.14	22773.41
667.28	22932.57
667.43	22768.73
667.57	23084.70
667.71	22712.56
667.85	22677.45
667.99	22684.47
668.13	22225.73
668.27	22534.68
668.41	22478.50
668.56	22513.61
668.70	22532.34
668.84	22405.95
668.98	22422.33
669.12	22630.64
669.26	22225.73
669.40	22590.85
669.54	22338.07
669.68	22267.86
669.82	22258.49
669.96	22508.93
670.10	22338.07
670.25	22361.48
670.39	22307.65
670.53	22054.87
670.67	22040.82
670.81	22256.15
670.95	21895.71
671.09	22040.82
671.23	21795.07
671.37	22169.55
671.51	21666.34
671.65	21895.71
671.79	21956.57
671.93	21926.14
672.07	21626.55
672.21	21521.23
672.35	21387.82
672.49	21380.79
672.63	21193.55
672.77	21191.21
672.91	21266.11
673.05	21209.93
673.19	21020.35
673.33	21397.18
673.47	21142.06
673.61	21415.90
673.75	21247.38
673.89	21380.79
674.03	21434.63
674.17	21195.89
674.31	21317.60
674.45	20898.64
674.59	20933.75
674.73	20980.56
674.87	20514.80
675.01	20741.83
675.15	20683.31
675.29	20489.05
675.43	20526.50
675.56	20673.95
675.70	20732.47
675.84	20648.21
675.98	19887.53
676.12	20521.82
676.26	20695.02
676.40	20575.65
676.54	20407.13
676.68	20194.14
676.82	19885.19
676.96	20044.35
677.10	20042.01
677.23	19948.39
677.37	19955.41
677.51	19920.30
677.65	19843.06
677.79	19690.93
677.93	19688.59
678.07	19733.06
678.21	19295.38
678.34	19768.16
678.48	19564.54
678.62	19325.80
678.76	19410.06
678.90	19365.59
679.04	19023.87
679.18	19386.66
679.31	19058.98
679.45	18991.11
679.59	19037.92
679.73	18771.10
679.87	19077.71
680.00	18829.61
680.14	18822.59
680.28	18801.52
680.42	18677.48
680.56	18806.20
680.70	18492.57
680.83	18576.83
680.97	18735.99
681.11	18691.52
681.25	18497.25
681.39	18471.51
681.52	18405.97
681.66	18375.55
681.80	17994.04
681.94	18527.68
682.07	18129.79
682.21	18043.19
682.35	17933.18
682.49	17783.39
682.62	17862.97
682.76	17759.98
682.90	17839.56
683.04	17891.06
683.17	17862.97
683.31	17809.14
683.45	17532.95
683.59	17537.63
683.72	17509.55
683.86	17453.37
684.00	17429.97
684.13	17284.86
684.27	17455.72
684.41	17277.83
684.55	17128.04
684.68	16982.93
684.82	16875.26
684.96	16690.36
685.09	16723.13
685.23	16652.91
685.37	16582.70
685.50	16631.85
685.64	16877.60
685.78	16774.62
685.91	16952.50
686.05	16624.83
686.19	16964.20
686.32	16652.91
686.46	16285.45
686.60	16042.03
686.73	16301.83
686.87	16203.53
687.01	16152.04
687.14	16051.39
687.28	16198.85
687.42	16297.15
687.55	15969.48
687.69	15817.34
687.82	15922.66
687.96	15939.05
688.10	15644.14
688.23	15793.94
688.37	15466.26
688.50	16091.18
688.64	15976.50
688.78	15674.57
688.91	15225.18
689.05	15758.83
689.18	15433.49
689.32	15190.08
689.46	15374.98
689.59	15171.35
689.73	15073.05
689.86	15279.02
690.00	15234.55
690.13	14787.50
690.27	15082.41
690.41	15000.49
690.54	14831.97
690.68	14733.67
690.81	15059.01
690.95	14831.97
691.08	14869.42
691.22	14665.80
691.35	14710.27
691.49	15075.39
691.62	14586.22
691.76	14438.76
691.89	14190.67
692.03	14310.04
692.16	14146.20
692.30	14153.22
692.43	14012.79
692.57	14167.26
692.70	14040.87
692.84	13848.95
692.97	13635.96
693.11	14036.19
693.24	13783.41
693.38	13820.86
693.51	13853.63
693.65	13584.47
693.78	13687.45
693.92	13628.94
694.05	13481.49
694.19	13582.13
694.32	13160.83
694.45	13221.69
694.59	13057.85
694.72	13067.21
694.86	13032.10
694.99	12938.48
695.13	13116.36
695.26	13135.09
695.39	13011.04
695.53	13177.22
695.66	13076.57
695.80	12975.93
695.93	12690.38
696.07	12849.54
696.20	12809.75
696.33	12734.85
696.47	12718.47
696.60	12762.94
696.73	12606.13
696.87	12596.76
697.00	12540.59
697.14	12386.12
697.27	12276.11
697.40	12217.60
697.54	12175.47
697.67	12004.61
697.80	12016.31
697.94	11988.22
698.07	12112.27
698.21	11873.54
698.34	12114.61
698.47	11920.35
698.61	12046.74
698.74	11903.96
698.87	11868.86
699.01	11566.93
699.14	11761.19
699.27	11648.85
699.40	11737.79
699.54	11506.07
699.67	11527.14
699.80	11459.26
699.94	11339.90
700.07	11384.37
700.20	11248.61
700.34	11061.37
700.47	11019.24
700.60	10787.53
700.73	11103.50
700.87	11140.95
701.00	11037.97
701.13	10869.45
701.26	11044.99
701.40	11201.80
701.53	10855.40
701.66	10857.75
701.79	10881.15
701.93	10537.09
702.06	10611.99
702.19	10686.89
702.32	10289.00
702.46	10279.63
702.59	10319.42
702.72	10171.97
702.85	10281.97
702.99	10370.91
703.12	10129.84
703.25	10272.61
703.38	10263.25
703.51	10108.77
703.65	10251.55
703.78	9951.96
703.91	10066.64
704.04	10073.67
704.17	10319.42
704.31	9954.30
704.44	9905.15
704.57	9966.00
704.70	9778.76
704.83	9533.00
704.96	9673.43
705.10	9490.87
705.23	9617.26
>>>>>End Processed Spectral Data<<<<<
