SpectraSuite Data File
++++++++++++++++++++++++++++++++++++
Date: Fri Oct 18 13:58:00 GMT-05:00 2013
User: bianchi
Dark Spectrum Present: No
Reference Spectrum Present: No
Number of Sampled Component Spectra: 1
Spectrometers: USB2+H05261
Integration Time (usec): 50000 (USB2+H05261)
Spectra Averaged: 1 (USB2+H05261)
Boxcar Smoothing: 0 (USB2+H05261)
Correct for Electrical Dark: No (USB2+H05261)
Strobe/Lamp Enabled: No (USB2+H05261)
Correct for Detector Non-linearity: No (USB2+H05261)
Correct for Stray Light: No (USB2+H05261)
Number of Pixels in Processed Spectrum: 2048
>>>>>Begin Processed Spectral Data<<<<<
365.73	0.00
365.92	0.00
366.12	0.00
366.32	0.00
366.52	0.00
366.72	0.00
366.91	0.00
367.11	0.00
367.31	0.00
367.51	0.00
367.70	0.00
367.90	0.00
368.10	0.00
368.30	0.00
368.49	0.00
368.69	0.00
368.89	0.00
369.09	0.00
369.28	0.00
369.48	0.00
369.68	0.00
369.87	0.00
370.07	0.00
370.27	0.00
370.47	0.00
370.66	0.00
370.86	100.64
371.06	154.48
371.25	156.82
371.45	105.32
371.65	154.48
371.84	166.18
372.04	128.73
372.24	227.03
372.44	189.58
372.63	227.03
372.83	222.35
373.03	105.32
373.22	222.35
373.42	133.41
373.62	271.50
373.81	290.23
374.01	241.08
374.21	245.76
374.40	252.78
374.60	259.80
374.79	161.50
374.99	266.82
375.19	306.61
375.38	262.14
375.58	231.71
375.78	315.97
375.97	287.89
376.17	318.31
376.37	224.69
376.56	337.04
376.76	198.95
376.95	220.01
377.15	255.12
377.35	262.14
377.54	255.12
377.74	222.35
377.93	315.97
378.13	285.55
378.33	299.59
378.52	227.03
378.72	236.39
378.91	217.67
379.11	306.61
379.31	308.95
379.50	250.44
379.70	308.95
379.89	358.10
380.09	280.86
380.28	259.80
380.48	306.61
380.68	301.93
380.87	276.18
381.07	280.86
381.26	362.78
381.46	276.18
381.65	346.40
381.85	339.38
382.04	320.65
382.24	280.86
382.43	330.02
382.63	308.95
382.83	388.53
383.02	348.74
383.22	344.06
383.41	346.40
383.61	374.49
383.80	344.06
384.00	390.87
384.19	383.85
384.39	334.70
384.58	402.57
384.78	365.12
384.97	388.53
385.17	283.20
385.36	402.57
385.56	369.80
385.75	360.44
385.95	428.32
386.14	374.49
386.34	381.51
386.53	353.42
386.72	393.21
386.92	447.04
387.11	428.32
387.31	454.06
387.50	374.49
387.70	386.19
387.89	465.77
388.09	381.51
388.28	435.34
388.48	393.21
388.67	400.23
388.86	447.04
389.06	500.87
389.25	468.11
389.45	449.38
389.64	482.15
389.84	489.17
390.03	444.70
390.22	451.72
390.42	458.74
390.61	559.39
390.81	507.90
391.00	423.64
391.19	552.37
391.39	479.81
391.58	496.19
391.78	505.56
391.97	512.58
392.16	510.24
392.36	568.75
392.55	568.75
392.75	620.24
392.94	545.34
393.13	545.34
393.33	514.92
393.52	627.26
393.71	585.13
393.91	524.28
394.10	550.03
394.29	540.66
394.49	631.94
394.68	599.18
394.88	664.71
395.07	573.43
395.26	571.09
395.46	596.84
395.65	645.99
395.84	610.88
396.04	638.97
396.23	662.37
396.42	631.94
396.62	664.71
396.81	545.34
397.00	653.01
397.19	681.10
397.39	720.88
397.58	744.29
397.77	664.71
397.97	662.37
398.16	758.33
398.35	772.38
398.55	716.20
398.74	767.70
398.93	732.59
399.12	746.63
399.32	695.14
399.51	755.99
399.70	734.93
399.90	713.86
400.09	709.18
400.28	793.44
400.47	739.61
400.67	770.04
400.86	849.61
401.05	760.67
401.24	758.33
401.44	854.30
401.63	802.80
401.82	758.33
402.01	812.17
402.21	777.06
402.40	828.55
402.59	793.44
402.78	760.67
402.97	842.59
403.17	833.23
403.36	873.02
403.55	894.08
403.74	863.66
403.93	877.70
404.13	816.85
404.32	875.36
404.51	868.34
404.70	968.98
404.89	924.51
405.09	952.60
405.28	931.53
405.47	947.92
405.66	915.15
405.85	966.64
406.05	976.00
406.24	875.36
406.43	1055.58
406.62	1015.79
406.81	1011.11
407.00	1048.56
407.20	936.21
407.39	1071.97
407.58	985.37
407.77	1013.45
407.96	1050.90
408.15	1114.10
408.34	1029.84
408.54	1074.31
408.73	1090.69
408.92	1053.24
409.11	1139.84
409.30	1156.22
409.49	1078.99
409.68	1102.39
409.87	1130.48
410.07	1196.01
410.26	1130.48
410.45	1210.06
410.64	1153.88
410.83	1273.25
411.02	1132.82
411.21	1322.40
411.40	1156.22
411.59	1240.48
411.78	1254.53
411.98	1296.66
412.17	1256.87
412.36	1217.08
412.55	1310.70
412.74	1327.08
412.93	1313.04
413.12	1357.51
413.31	1317.72
413.50	1352.83
413.69	1380.92
413.88	1373.89
414.07	1453.47
414.26	1535.39
414.45	1380.92
414.64	1544.75
414.83	1439.43
415.02	1444.11
415.22	1577.52
415.41	1568.16
415.60	1554.12
415.79	1495.60
415.98	1514.33
416.17	1479.22
416.36	1685.19
416.55	1610.29
416.74	1675.82
416.93	1610.29
417.12	1652.42
417.31	1659.44
417.50	1647.74
417.69	1797.53
417.88	1666.46
418.07	1804.55
418.26	1746.04
418.45	1710.93
418.64	1827.96
418.83	1902.86
419.02	1778.81
419.21	1823.28
419.39	1762.42
419.58	1694.55
419.77	1769.44
419.96	1811.57
420.15	1898.17
420.34	1844.34
420.53	1961.37
420.72	1966.05
420.91	1886.47
421.10	1928.60
421.29	2031.58
421.48	2031.58
421.67	1984.77
421.86	1928.60
422.05	2001.16
422.24	1834.98
422.43	1952.01
422.61	1973.07
422.80	1989.46
422.99	1994.14
423.18	2019.88
423.37	2015.20
423.56	1905.20
423.75	2008.18
423.94	1870.09
424.13	1849.02
424.32	1963.71
424.50	2101.80
424.69	2057.33
424.88	1977.75
425.07	1930.94
425.26	1877.11
425.45	2015.20
425.64	2036.27
425.83	1959.03
426.01	2069.03
426.20	2038.61
426.39	2076.06
426.58	2122.87
426.77	2073.71
426.96	2043.29
427.15	2148.61
427.33	2146.27
427.52	2202.44
427.71	2122.87
427.90	2228.19
428.09	2106.48
428.28	2132.23
428.46	2235.21
428.65	2284.36
428.84	2260.96
429.03	2265.64
429.22	2169.68
429.40	2165.00
429.59	2291.38
429.78	2214.15
429.97	2202.44
430.16	2289.04
430.34	2298.41
430.53	2326.49
430.72	2356.92
430.91	2408.41
431.10	2275.00
431.28	2331.17
431.47	2270.32
431.66	2361.60
431.85	2436.50
432.03	2476.29
432.22	2436.50
432.41	2408.41
432.60	2436.50
432.79	2427.14
432.97	2506.71
433.16	2415.43
433.35	2471.61
433.54	2527.78
433.72	2590.97
433.91	2448.20
434.10	2394.37
434.28	2509.05
434.47	2612.04
434.66	2567.57
434.85	2579.27
435.03	2555.86
435.22	2597.99
435.41	2595.65
435.59	2565.23
435.78	2698.64
435.97	2663.53
436.16	2579.27
436.34	2740.77
436.53	2684.59
436.72	2644.81
436.90	2602.68
437.09	2789.92
437.28	2677.57
437.46	2682.25
437.65	2717.36
437.84	2724.38
438.02	2644.81
438.21	2813.32
438.40	2794.60
438.58	2864.82
438.77	2951.42
438.96	2834.39
439.14	2860.13
439.33	2916.31
439.52	3007.59
439.70	2883.54
439.89	3007.59
440.08	3073.12
440.26	3040.36
440.45	2970.14
440.63	3033.33
440.82	3150.36
441.01	3176.11
441.19	3124.62
441.38	3220.58
441.57	3215.90
441.75	3194.83
441.94	3276.75
442.12	3300.16
442.31	3286.11
442.50	3185.47
442.68	3155.04
442.87	3307.18
443.05	3307.18
443.24	3267.39
443.43	3318.88
443.61	3461.65
443.80	3398.46
443.98	3171.43
444.17	3283.77
444.35	3417.18
444.54	3342.28
444.73	3286.11
444.91	3325.90
445.10	3344.63
445.28	3382.07
445.47	3482.72
445.65	3269.73
445.84	3396.12
446.02	3454.63
446.21	3445.27
446.39	3410.16
446.58	3393.78
446.77	3412.50
446.95	3494.42
447.14	3482.72
447.32	3492.08
447.51	3646.55
447.69	3480.38
447.88	3510.80
448.06	3431.23
448.25	3445.27
448.43	3667.62
448.62	3438.25
448.80	3499.10
448.99	3613.79
449.17	3557.61
449.36	3564.64
449.54	3578.68
449.73	3679.32
449.91	3499.10
450.10	3576.34
450.28	3688.68
450.46	3735.50
450.65	3552.93
450.83	3695.71
451.02	3707.41
451.20	3896.99
451.39	3845.50
451.57	3637.19
451.76	3892.31
451.94	3639.53
452.13	3896.99
452.31	3765.92
452.49	3721.45
452.68	3859.54
452.86	3789.33
453.05	3840.82
453.23	3920.40
453.42	3964.87
453.60	3918.06
453.78	3906.35
453.97	3957.85
454.15	3824.44
454.34	3920.40
454.52	3927.42
454.70	3925.08
454.89	3920.40
455.07	4074.87
455.26	3953.16
455.44	4070.19
455.62	3946.14
455.81	3974.23
455.99	4121.68
456.17	4107.64
456.36	4114.66
456.54	4109.98
456.73	4208.28
456.91	4187.22
457.09	4257.43
457.28	4414.25
457.46	4306.59
457.64	4381.48
457.83	4360.42
458.01	4266.80
458.19	4486.81
458.38	4287.86
458.56	4437.66
458.74	4276.16
458.93	4430.63
459.11	4442.34
459.29	4447.02
459.48	4535.96
459.66	4421.27
459.84	4566.39
460.03	4545.32
460.21	4484.47
460.39	4381.48
460.57	4482.13
460.76	4348.72
460.94	4638.94
461.12	4622.56
461.31	4580.43
461.49	4510.21
461.67	4739.58
461.85	4575.75
462.04	4770.01
462.22	4940.87
462.40	4692.77
462.59	4573.41
462.77	4669.37
462.95	4791.08
463.13	4734.90
463.32	4664.69
463.50	4882.36
463.68	4727.88
463.86	4739.58
464.05	4732.56
464.23	4873.00
464.41	4807.46
464.59	4858.95
464.78	4990.02
464.96	4868.31
465.14	4847.25
465.32	4964.28
465.50	5015.77
465.69	4950.23
465.87	4863.63
466.05	4807.46
466.23	4887.04
466.41	5088.32
466.60	5095.35
466.78	5018.11
466.96	4847.25
467.14	5170.24
467.32	5046.20
467.51	5132.79
467.69	5193.65
467.87	5170.24
468.05	5055.56
468.23	5046.20
468.41	5085.98
468.60	5137.48
468.78	5308.34
468.96	5139.82
469.14	5277.91
469.32	5298.97
469.50	5247.48
469.69	5364.51
469.87	5394.93
470.05	5408.98
470.23	5439.40
470.41	5392.59
470.59	5469.83
470.77	5376.21
470.95	5282.59
471.14	5490.90
471.32	5228.76
471.50	5603.24
471.68	5671.12
471.86	5654.73
472.04	5593.88
472.22	5746.02
472.40	5675.80
472.58	5607.92
472.77	5734.31
472.95	5657.07
473.13	5940.28
473.31	5839.64
473.49	5715.59
473.67	5757.72
473.85	5781.12
474.03	5895.81
474.21	5937.94
474.39	5863.04
474.57	6078.37
474.75	6211.78
474.93	6108.80
475.12	6115.82
475.30	6090.07
475.48	5935.60
475.66	6200.08
475.84	6218.80
476.02	6150.93
476.20	6427.11
476.38	6361.58
476.56	6626.06
476.74	6597.97
476.92	6560.52
477.10	6607.33
477.28	6612.01
477.46	6476.26
477.64	6817.98
477.82	6817.98
478.00	7005.22
478.18	6883.52
478.36	6888.20
478.54	7021.61
478.72	6904.58
478.90	7091.82
479.08	7194.81
479.26	7171.40
479.44	7295.45
479.62	7316.51
479.80	7456.95
479.98	7384.39
480.16	7499.08
480.34	7428.86
480.52	7590.36
480.70	7705.04
480.88	7651.21
481.06	7868.88
481.24	7948.46
481.41	7625.47
481.59	7896.97
481.77	8219.96
481.95	8006.97
482.13	8152.09
482.31	8060.80
482.49	8315.92
482.67	8262.09
482.85	8259.75
483.03	8411.89
483.21	8664.66
483.39	8573.38
483.57	8507.85
483.74	8636.58
483.92	8718.50
484.10	8578.06
484.28	8975.95
484.46	9097.66
484.64	9114.05
484.82	9055.53
485.00	9146.81
485.18	9142.13
485.35	9231.07
485.53	9462.79
485.71	9383.21
485.89	9535.34
486.07	9460.45
486.25	9692.16
486.43	9575.13
486.61	9755.35
486.78	9722.59
486.96	9949.62
487.14	10228.14
487.32	9933.23
487.50	10188.35
487.68	10239.84
487.85	10052.60
488.03	10497.30
488.21	10504.32
488.39	10438.79
488.57	10403.68
488.75	10771.15
488.92	10820.30
489.10	10806.25
489.28	10881.15
489.46	11126.91
489.64	11089.46
489.81	11180.74
489.99	11253.30
490.17	11201.80
490.35	11297.77
490.53	11335.21
490.70	11637.14
490.88	11529.48
491.06	11740.13
491.24	11674.59
491.41	11520.12
491.59	11992.90
491.77	11906.31
491.95	12100.57
492.13	12184.83
492.30	12334.62
492.48	12210.57
492.66	12266.75
492.84	12376.75
493.01	12521.87
493.19	12793.37
493.37	12589.74
493.54	12648.26
493.72	12683.36
493.90	12755.92
494.08	12739.54
494.25	13027.42
494.43	13228.71
494.61	13184.24
494.79	13399.57
494.96	13334.03
495.14	13270.84
495.32	13500.21
495.49	13465.10
495.67	13624.26
495.85	13633.62
496.02	13703.84
496.20	13963.64
496.38	13755.33
496.55	13923.85
496.73	14057.26
496.91	13923.85
497.09	14272.59
497.26	13942.57
497.44	14221.10
497.62	14326.42
497.79	14335.78
497.97	14487.92
498.14	14590.90
498.32	14714.95
498.50	14661.12
498.67	15122.20
498.85	14911.55
499.03	14817.93
499.20	14876.44
499.38	15005.17
499.56	15103.48
499.73	15414.77
499.91	15468.60
500.08	15316.47
500.26	15314.13
500.44	15332.85
500.61	15410.09
500.79	15482.64
500.97	15414.77
501.14	15522.43
501.32	15772.87
501.49	15456.90
501.67	15796.28
501.84	15997.56
502.02	15735.42
502.20	15850.11
502.37	15936.71
502.55	16074.80
502.72	16259.70
502.90	15962.45
503.07	16020.97
503.25	16423.54
503.43	16390.77
503.60	16264.38
503.78	16505.46
503.95	16465.67
504.13	16535.88
504.30	16552.27
504.48	16732.49
504.65	16643.55
504.83	16833.13
505.01	17240.39
505.18	17011.01
505.36	17254.43
505.53	17254.43
505.71	17163.15
505.88	16666.95
506.06	16950.16
506.23	17195.92
506.41	17020.38
506.58	16936.12
506.76	17308.26
506.93	17362.09
507.11	17277.83
507.28	17451.03
507.46	17558.70
507.63	17570.40
507.81	17905.10
507.98	17635.94
508.16	17745.94
508.33	17568.06
508.50	17820.84
508.68	17832.54
508.85	18090.00
509.03	17841.90
509.20	18284.26
509.38	18317.03
509.55	18288.95
509.73	18097.02
509.90	18307.67
510.08	18349.80
510.25	18298.31
510.42	18441.08
510.60	18649.39
510.77	18518.32
510.95	18567.47
511.12	18541.72
511.30	18817.91
511.47	18853.02
511.64	18860.04
511.82	18970.04
511.99	19073.03
512.17	19056.64
512.34	18946.64
512.51	18951.32
512.69	19234.52
512.86	19438.15
513.04	19150.26
513.21	19213.46
513.38	19119.84
513.56	19435.81
513.73	19323.46
513.90	19569.22
514.08	19255.59
514.25	19257.93
514.43	19601.99
514.60	19599.65
514.77	19665.18
514.95	19826.68
515.12	19681.56
515.29	19716.67
515.47	19676.88
515.64	19683.91
515.81	19831.36
515.99	20170.74
516.16	20201.16
516.33	20229.25
516.51	20655.23
516.68	20042.01
516.85	20058.39
517.03	20442.24
517.20	20493.73
517.37	20425.86
517.54	20350.96
517.72	20655.23
517.89	20290.10
518.06	20575.65
518.24	20699.70
518.41	20116.90
518.58	20727.78
518.75	20842.47
518.93	21050.78
519.10	20982.90
519.27	21083.55
519.45	20709.06
519.62	20652.89
519.79	21128.02
519.96	20900.98
520.14	21043.76
520.31	20957.16
520.48	21270.79
520.65	21287.17
520.83	21333.98
521.00	21322.28
521.17	21392.50
521.34	21280.15
521.52	21443.99
521.69	21570.38
521.86	21542.29
522.03	21996.35
522.20	21816.13
522.38	21708.47
522.55	21572.72
522.72	21699.11
522.89	21998.70
523.07	22452.76
523.24	22050.19
523.41	22029.12
523.58	21804.43
523.75	22064.23
523.92	22097.00
524.10	22284.24
524.27	22066.57
524.44	22569.79
524.61	22434.03
524.78	22445.74
524.96	21956.57
525.13	22185.94
525.30	22429.35
525.47	22099.34
525.64	22146.15
525.81	22424.67
525.98	22740.64
526.16	22597.87
526.33	22384.88
526.50	23028.53
526.67	22324.03
526.84	22782.77
527.01	22764.05
527.18	22986.40
527.36	22965.34
527.53	23103.43
527.70	23201.73
527.87	23229.82
528.04	23089.38
528.21	22967.68
528.38	22977.04
528.55	23398.34
528.72	23248.54
528.89	23138.54
529.07	22981.72
529.24	23192.37
529.41	23438.12
529.58	23388.97
529.75	23477.91
529.92	23538.77
530.09	23288.33
530.26	23716.65
530.43	23545.79
530.60	23407.70
530.77	23421.74
530.94	23990.49
531.11	23676.86
531.28	23585.58
531.46	23917.93
531.63	23475.57
531.80	24053.69
531.97	24016.24
532.14	24198.80
532.31	24072.41
532.48	23936.66
532.65	24421.15
532.82	23922.62
532.99	23964.75
533.16	23852.40
533.33	24212.84
533.50	24573.28
533.67	24652.86
533.84	24154.33
534.01	24327.53
534.18	23969.43
534.35	24524.13
534.52	24147.31
534.69	24624.78
534.86	24456.26
535.03	24390.72
535.20	24568.60
535.37	24753.51
535.54	24781.59
535.71	24552.22
535.88	24680.95
536.05	24372.00
536.22	24683.29
536.38	24741.80
536.55	24943.09
536.72	25020.33
536.89	24753.51
537.06	24900.96
537.23	24790.95
537.40	24620.10
537.57	24732.44
537.74	25104.59
537.91	25366.73
538.08	25380.77
538.25	25163.10
538.42	25490.77
538.59	25502.48
538.75	25188.85
538.92	24807.34
539.09	25446.30
539.26	25259.06
539.43	25315.23
539.60	25687.38
539.77	25376.09
539.94	25352.68
540.11	25474.39
540.28	25310.55
540.44	25666.31
540.61	25469.71
540.78	25858.24
540.95	25841.85
541.12	25736.53
541.29	25689.72
541.46	25525.88
541.62	25591.42
541.79	25886.32
541.96	25317.57
542.13	25481.41
542.30	25654.61
542.47	26040.80
542.63	26059.52
542.80	26005.69
542.97	26272.51
543.14	26141.44
543.31	25996.33
543.48	26085.27
543.64	26256.13
543.81	26338.05
543.98	26714.87
544.15	26588.49
544.32	26316.98
544.48	26553.38
544.65	26111.02
544.82	26551.04
544.99	26139.10
545.16	26501.89
545.32	26394.22
545.49	26827.22
545.66	26738.28
545.83	26506.57
546.00	27103.40
546.16	26796.79
546.33	26719.56
546.50	26174.21
546.67	26338.05
546.83	26361.45
547.00	26834.24
547.17	26778.07
547.34	26913.82
547.50	26911.48
547.67	27330.44
547.84	27248.52
548.00	27311.71
548.17	26951.27
548.34	27138.51
548.51	26960.63
548.67	27115.11
548.84	27531.72
549.01	27264.90
549.18	27180.64
549.34	26857.65
549.51	27012.12
549.68	27290.65
549.84	27260.22
550.01	27173.62
550.18	27248.52
550.34	27089.36
550.51	27328.10
550.68	27332.78
550.84	27208.73
551.01	27850.03
551.18	27510.66
551.34	27576.19
551.51	27143.19
551.68	27630.02
551.84	27648.75
552.01	27770.46
552.18	27655.77
552.34	27597.26
552.51	28130.90
552.68	27384.27
552.84	27950.68
553.01	27735.35
553.18	27564.49
553.34	28011.53
553.51	27761.09
553.67	27718.96
553.84	28032.60
554.01	28194.09
554.17	27889.82
554.34	27695.56
554.51	27859.40
554.67	27936.63
554.84	27922.59
555.00	28077.07
555.17	28322.82
555.33	28271.33
555.50	27931.95
555.67	28210.48
555.83	28173.03
556.00	28044.30
556.16	27957.70
556.33	28070.04
556.50	28156.64
556.66	28212.82
556.83	27971.74
556.99	28233.88
557.16	28266.65
557.32	28570.92
557.49	28582.62
557.65	28418.78
557.82	28336.87
557.98	28542.83
558.15	28430.49
558.32	28400.06
558.48	28507.72
558.65	28664.54
558.81	28467.94
558.98	28137.92
559.14	28137.92
559.31	28292.40
559.47	28313.46
559.64	28709.01
559.80	28313.46
559.97	28591.98
560.13	28594.32
560.30	29095.20
560.46	28926.68
560.63	28676.24
560.79	28767.52
560.96	28741.78
561.12	28191.75
561.29	28709.01
561.45	28521.77
561.61	28989.88
561.78	28840.08
561.94	29010.94
562.11	29078.82
562.27	28914.98
562.44	28734.76
562.60	28751.14
562.77	28758.16
562.93	28615.39
563.10	29116.26
563.26	28816.68
563.42	28929.02
563.59	28788.59
563.75	28711.35
563.92	29078.82
564.08	28854.12
564.24	29015.62
564.41	28926.68
564.57	28786.25
564.74	29109.24
564.90	29230.95
565.07	29102.22
565.23	28980.51
565.39	29591.39
565.56	29390.11
565.72	28980.51
565.88	28982.85
566.05	29308.19
566.21	29174.78
566.38	29397.13
566.54	29046.05
566.70	28893.91
566.87	29333.93
567.03	28840.08
567.19	29570.33
567.36	29404.15
567.52	29006.26
567.68	29373.72
567.85	28872.85
568.01	29371.38
568.17	29266.06
568.34	29509.47
568.50	29326.91
568.66	29230.95
568.83	29441.60
568.99	29102.22
569.15	29130.31
569.32	29146.69
569.48	29050.73
569.64	29399.47
569.81	29509.47
569.97	29369.04
570.13	29495.43
570.30	29415.85
570.46	29488.41
570.62	29598.41
570.78	29401.81
570.95	29174.78
571.11	29392.45
571.27	28959.45
571.43	29212.23
571.60	29362.02
571.76	29191.16
571.92	29699.06
572.09	29406.49
572.25	29177.12
572.41	29785.66
572.57	29450.96
572.74	29586.71
572.90	29202.86
573.06	29436.92
573.22	29448.62
573.38	29586.71
573.55	29488.41
573.71	29720.12
573.87	29933.11
574.03	29706.08
574.20	29724.80
574.36	29722.46
574.52	29467.34
574.68	29326.91
574.84	29401.81
575.01	29483.73
575.17	29268.40
575.33	29380.74
575.49	29429.90
575.65	29647.57
575.82	29633.52
575.98	29462.66
576.14	29780.98
576.30	29308.19
576.46	29717.78
576.62	29617.14
576.79	29319.89
576.95	29701.40
577.11	29881.62
577.27	29736.51
577.43	29586.71
577.59	29560.97
577.75	29874.60
577.92	29766.93
578.08	29635.86
578.24	29488.41
578.40	29694.38
578.56	29373.72
578.72	29764.59
578.88	29530.54
579.04	29584.37
579.21	29809.06
579.37	29558.63
579.53	29745.87
579.69	29624.16
579.85	29177.12
580.01	29670.97
580.17	29439.26
580.33	29738.85
580.49	29516.50
580.65	29579.69
580.82	29935.45
580.98	29745.87
581.14	29788.00
581.30	29788.00
581.46	29820.77
581.62	29635.86
581.78	29598.41
581.94	29965.88
582.10	29511.81
582.26	29736.51
582.42	29610.12
582.58	29858.21
582.74	29865.24
582.90	29926.09
583.06	29961.20
583.22	29869.92
583.38	29795.02
583.54	29598.41
583.70	29722.46
583.86	29855.87
584.02	29853.53
584.18	30141.42
584.34	29991.62
584.50	29802.04
584.66	29869.92
584.82	30132.06
584.98	29776.30
585.14	30087.59
585.30	29565.65
585.46	29890.98
585.62	29839.49
585.78	29706.08
585.94	29434.58
586.10	30089.93
586.26	29518.84
586.42	29883.96
586.58	29972.90
586.74	29905.02
586.90	29785.66
587.06	29656.93
587.22	29743.53
587.38	29759.91
587.54	30426.96
587.70	30110.99
587.86	29692.04
588.02	30263.13
588.18	30361.43
588.34	29837.15
588.49	29933.11
588.65	29879.28
588.81	29965.88
588.97	30031.41
589.13	29685.01
589.29	30087.59
589.45	30136.74
589.61	30036.09
589.77	30450.37
589.93	30005.67
590.08	30368.45
590.24	30602.50
590.40	30490.16
590.56	30139.08
590.72	30251.42
590.88	29713.10
591.04	29975.24
591.20	29996.31
591.35	30258.45
591.51	30614.21
591.67	30068.86
591.83	30260.79
591.99	30103.97
592.15	30333.34
592.31	30321.64
592.46	30328.66
592.62	30047.80
592.78	30082.91
592.94	30359.09
593.10	30068.86
593.26	30462.07
593.41	30630.59
593.57	30501.86
593.73	30181.21
593.89	30656.34
594.05	30448.03
594.20	30347.39
594.36	29909.71
594.52	30033.75
594.68	30464.41
594.84	29923.75
594.99	30459.73
595.15	30415.26
595.31	30525.27
595.47	30515.90
595.62	30218.66
595.78	30326.32
595.94	30108.65
596.10	30396.54
596.25	30174.19
596.41	30448.03
596.57	30263.13
596.73	30235.04
596.88	30312.28
597.04	30623.57
597.20	30485.48
597.36	30551.01
597.51	30845.92
597.67	30642.29
597.83	30085.25
597.99	30771.02
598.14	30462.07
598.30	30480.80
598.46	30272.49
598.61	30642.29
598.77	30160.14
598.93	30792.09
599.09	30382.49
599.24	30581.44
599.40	30319.30
599.56	30602.50
599.71	30756.98
599.87	30668.04
600.03	30586.12
600.18	30480.80
600.34	30312.28
600.50	30326.32
600.65	30871.67
600.81	30539.31
600.97	30504.20
601.12	30689.10
601.28	30618.89
601.44	30658.68
601.59	30513.56
601.75	30218.66
601.91	30574.42
602.06	30441.01
602.22	30539.31
602.37	30066.52
602.53	30356.75
602.69	30396.54
602.84	30494.84
603.00	30668.04
603.16	30490.16
603.31	30728.89
603.47	30635.27
603.62	30506.54
603.78	30616.55
603.94	30267.81
604.09	30174.19
604.25	30682.08
604.40	30609.53
604.56	30230.36
604.71	30415.26
604.87	30581.44
605.03	30223.34
605.18	30693.79
605.34	30291.21
605.49	30466.75
605.65	30305.26
605.80	29928.43
605.96	29935.45
606.12	29940.13
606.27	30684.42
606.43	30249.08
606.58	30611.87
606.74	29935.45
606.89	30590.80
607.05	30525.27
607.20	30443.35
607.36	29905.02
607.51	30663.36
607.67	30239.72
607.82	30171.85
607.98	30008.01
608.13	30281.85
608.29	30160.14
608.44	30073.54
608.60	30359.09
608.75	30221.00
608.91	30216.32
609.06	30384.83
609.22	30443.35
609.37	30223.34
609.53	30008.01
609.68	30478.46
609.84	29685.01
609.99	30403.56
610.15	29963.54
610.30	30176.53
610.46	30223.34
610.61	30508.88
610.76	30176.53
610.92	30380.15
611.07	30052.48
611.23	29956.52
611.38	30087.59
611.54	30258.45
611.69	30136.74
611.84	30153.12
612.00	29965.88
612.15	30017.37
612.31	30054.82
612.46	29968.22
612.62	30066.52
612.77	30068.86
612.92	30146.10
613.08	29645.23
613.23	30108.65
613.39	30033.75
613.54	29640.54
613.69	30078.22
613.85	29935.45
614.00	29680.33
614.15	29958.86
614.31	29888.64
614.46	29626.50
614.62	30211.64
614.77	29818.42
614.92	29619.48
615.08	29949.50
615.23	29954.18
615.38	29912.05
615.54	29689.70
615.69	29563.31
615.84	29556.28
616.00	29755.23
616.15	29886.30
616.30	29722.46
616.46	29603.10
616.61	29771.61
616.76	30087.59
616.92	29790.34
617.07	29523.52
617.22	29399.47
617.37	29809.06
617.53	29748.21
617.68	29542.24
617.83	29380.74
617.99	29230.95
618.14	29364.36
618.29	29577.35
618.45	29575.01
618.60	29340.96
618.75	29308.19
618.90	29453.30
619.06	29525.86
619.21	29247.33
619.36	29216.91
619.51	29378.40
619.67	29153.71
619.82	29289.46
619.97	29415.85
620.12	29228.61
620.28	29390.11
620.43	29237.97
620.58	29479.05
620.73	29212.23
620.89	29415.85
621.04	29600.76
621.19	29233.29
621.34	28793.27
621.49	29446.28
621.65	29263.72
621.80	29085.84
621.95	29266.06
622.10	29083.50
622.25	29167.76
622.41	29308.19
622.56	28898.59
622.71	29160.73
622.86	28933.70
623.01	29153.71
623.16	29090.52
623.32	28650.50
623.47	28865.83
623.62	29221.59
623.77	28624.75
623.92	28840.08
624.07	28971.15
624.23	28650.50
624.38	29048.39
624.53	28893.91
624.68	29024.98
624.83	29013.28
624.98	29146.69
625.13	28678.58
625.29	28795.61
625.44	28954.77
625.59	28545.17
625.74	28694.97
625.89	28587.30
626.04	28421.13
626.19	28575.60
626.34	28247.93
626.49	28341.55
626.65	28226.86
626.80	28774.55
626.95	28678.58
627.10	28524.11
627.25	28428.15
627.40	28556.88
627.55	28133.24
627.70	28360.27
627.85	28503.04
628.00	28383.68
628.15	28566.24
628.30	28196.43
628.45	28318.14
628.60	28009.19
628.76	28418.78
628.91	28486.66
629.06	28276.01
629.21	28364.95
629.36	28369.63
629.51	28397.72
629.66	28135.58
629.81	28306.44
629.96	27826.63
630.11	27878.12
630.26	28004.51
630.41	27915.57
630.56	27969.40
630.71	27992.81
630.86	27922.59
631.01	28409.42
631.16	28156.64
631.31	28004.51
631.46	27454.48
631.61	28018.55
631.76	28252.61
631.91	27761.09
632.06	27824.29
632.21	28067.70
632.36	28112.17
632.51	27803.22
632.66	28072.39
632.81	27520.02
632.96	28039.62
633.10	27934.29
633.25	27882.80
633.40	28060.68
633.55	27894.50
633.70	27428.74
633.85	27522.36
634.00	27630.02
634.15	27934.29
634.30	27583.21
634.45	27707.26
634.60	27552.79
634.75	27407.67
634.90	27475.55
635.05	28245.58
635.19	27948.34
635.34	27946.00
635.49	27672.15
635.64	27466.19
635.79	27662.79
635.94	27761.09
636.09	27625.34
636.24	27674.49
636.39	27239.15
636.53	27321.07
636.68	27424.06
636.83	27243.84
636.98	27456.82
637.13	27281.28
637.28	27634.71
637.43	27351.50
637.57	27435.76
637.72	27349.16
637.87	27269.58
638.02	27435.76
638.17	27400.65
638.32	27133.83
638.46	27475.55
638.61	26974.67
638.76	26834.24
638.91	27044.89
639.06	27115.11
639.20	27075.32
639.35	27531.72
639.50	27108.08
639.65	27672.15
639.80	27138.51
639.94	27381.93
640.09	27124.47
640.24	27026.17
640.39	27136.17
640.54	27030.85
640.68	26731.26
640.83	26902.12
640.98	26609.55
641.13	26780.41
641.27	26960.63
641.42	27225.11
641.57	26778.07
641.72	27283.62
641.86	26937.23
642.01	26398.90
642.16	26754.66
642.31	26417.63
642.45	26761.69
642.60	26504.23
642.75	26801.47
642.90	26499.55
643.04	26623.59
643.19	26476.14
643.34	26773.39
643.48	26536.99
643.63	27094.04
643.78	26806.16
643.93	26576.78
644.07	26803.82
644.22	26780.41
644.37	26553.38
644.51	26656.36
644.66	26445.71
644.81	26623.59
644.95	26637.64
645.10	26466.78
645.25	26373.16
645.39	26466.78
645.54	26312.30
645.69	26377.84
645.83	26415.29
645.98	26782.75
646.13	26602.53
646.27	26445.71
646.42	26522.95
646.57	26181.23
646.71	26469.12
646.86	26375.50
647.00	26682.11
647.15	26242.09
647.30	26155.49
647.44	26068.89
647.59	26340.39
647.74	26139.10
647.88	26167.19
648.03	26370.82
648.17	26405.92
648.32	26497.20
648.47	26258.47
648.61	26349.75
648.76	26438.69
648.90	25886.32
649.05	26185.91
649.20	26286.56
649.34	25907.39
649.49	25652.27
649.63	25837.17
649.78	25895.69
649.92	25254.38
650.07	25975.27
650.21	26012.71
650.36	25881.64
650.51	25738.87
650.65	25951.86
650.80	25823.13
650.94	25975.27
651.09	25661.63
651.23	25944.84
651.38	25605.46
651.52	25502.48
651.67	25898.03
651.81	25951.86
651.96	25720.15
652.10	26141.44
652.25	25659.29
652.39	25605.46
652.54	25645.25
652.68	25975.27
652.83	25790.36
652.97	26040.80
653.12	25532.90
653.26	25610.14
653.41	25317.57
653.55	25268.42
653.70	25238.00
653.84	25420.56
653.99	25324.60
654.13	24982.88
654.27	25710.78
654.42	25289.49
654.56	25249.70
654.71	25642.91
654.85	25380.77
655.00	25378.43
655.14	25371.41
655.29	25223.95
655.43	25654.61
655.57	25130.33
655.72	25142.03
655.86	25186.50
656.01	25153.74
656.15	25338.64
656.30	25142.03
656.44	25057.78
656.58	25200.55
656.73	25111.61
656.87	25420.56
657.01	25181.82
657.16	25530.56
657.30	25071.82
657.45	25230.98
657.59	25270.76
657.73	25427.58
657.88	25046.07
658.02	24844.79
658.16	24896.28
658.31	24837.76
658.45	24905.64
658.60	24531.15
658.74	25071.82
658.88	24884.58
659.03	24910.32
659.17	24795.64
659.31	24945.43
659.46	24732.44
659.60	24807.34
659.74	24692.65
659.89	24816.70
660.03	24554.56
660.17	24797.98
660.32	24592.01
660.46	24622.44
660.60	24191.78
660.74	24301.78
660.89	24482.00
661.03	23985.81
661.17	24084.11
661.32	24123.90
661.46	24528.81
661.60	24510.09
661.74	24180.07
661.89	24498.39
662.03	24659.88
662.17	24367.32
662.31	23857.08
662.46	23878.15
662.60	24126.24
662.74	24144.97
662.88	23824.31
663.03	23775.16
663.17	23662.82
663.31	23873.46
663.45	23721.33
663.60	23931.98
663.74	23718.99
663.88	23770.48
664.02	23583.24
664.17	24107.52
664.31	23747.08
664.45	23679.20
664.59	23653.45
664.73	23887.51
664.88	23772.82
665.02	23178.33
665.16	23491.96
665.30	23744.73
665.44	23098.75
665.59	23208.75
665.73	23702.61
665.87	22965.34
666.01	23337.48
666.15	23632.39
666.29	23047.26
666.44	23386.63
666.58	23129.17
666.72	23063.64
666.86	23016.83
667.00	23388.97
667.14	23168.96
667.28	23297.69
667.43	22822.56
667.57	22974.70
667.71	22742.99
667.85	23147.90
667.99	22668.09
668.13	22579.15
668.27	23030.87
668.41	23117.47
668.56	22604.89
668.70	22806.18
668.84	22965.34
668.98	22698.52
669.12	22689.15
669.26	22480.85
669.40	22771.07
669.54	22614.26
669.68	22588.51
669.82	22483.19
669.96	22295.94
670.10	22438.72
670.25	22569.79
670.39	22207.00
670.53	22155.51
670.67	22199.98
670.81	22445.74
670.95	22188.28
671.09	22008.06
671.23	22190.62
671.37	22207.00
671.51	22324.03
671.65	22092.32
671.79	21989.33
671.93	22047.85
672.07	22040.82
672.21	21778.68
672.35	21797.41
672.49	21713.15
672.63	21813.79
672.77	21219.30
672.91	21589.10
673.05	21619.53
673.19	21572.72
673.33	21411.22
673.47	21502.50
673.61	21600.80
673.75	21603.14
673.89	21467.39
674.03	21490.80
674.17	21404.20
674.31	21355.05
674.45	21341.00
674.59	21228.66
674.73	21142.06
674.87	21397.18
675.01	20638.84
675.15	21036.74
675.29	20793.32
675.43	20662.25
675.56	20856.51
675.70	20779.28
675.84	20606.08
675.98	20114.56
676.12	20795.66
676.26	20863.54
676.40	20830.77
676.54	20772.25
676.68	20531.18
676.82	20180.10
676.96	20348.62
677.10	20425.86
677.23	20088.82
677.37	20072.43
677.51	20058.39
677.65	20505.43
677.79	19798.59
677.93	20027.96
678.07	19852.42
678.21	19932.00
678.34	19915.62
678.48	19836.04
678.62	19845.40
678.76	19833.70
678.90	19538.79
679.04	19590.28
679.18	19302.40
679.31	19250.91
679.45	19199.41
679.59	18864.72
679.73	19220.48
679.87	19037.92
680.00	18843.65
680.14	18881.10
680.28	18834.29
680.42	18810.89
680.56	19080.05
680.70	18972.38
680.83	18981.74
680.97	18941.96
681.11	18684.50
681.25	18588.53
681.39	18647.05
681.52	18466.83
681.66	18537.04
681.80	18277.24
681.94	18422.36
682.07	18572.15
682.21	18647.05
682.35	18380.23
682.49	18302.99
682.62	17905.10
682.76	18197.67
682.90	18314.69
683.04	17785.73
683.17	17891.06
683.31	17879.35
683.45	17998.72
683.59	18108.72
683.72	17633.60
683.86	17877.01
684.00	17434.65
684.13	17647.64
684.27	17287.20
684.41	17338.69
684.55	17397.20
684.68	17436.99
684.82	17174.85
684.96	17270.81
685.09	17020.38
685.23	16954.84
685.37	17221.66
685.50	17429.97
685.64	17179.53
685.78	17081.23
685.91	16748.87
686.05	17099.95
686.19	16706.74
686.32	16765.26
686.46	16453.97
686.60	16889.31
686.73	16603.76
686.87	16400.13
687.01	16376.73
687.14	16301.83
687.28	16154.38
687.42	16182.46
687.55	16114.59
687.69	16002.24
687.82	16123.95
687.96	15878.19
688.10	15875.85
688.23	15960.11
688.37	16084.16
688.50	16346.30
688.64	15765.85
688.78	15782.23
688.91	15433.49
689.05	15831.38
689.18	15545.84
689.32	15190.08
689.46	15138.58
689.59	15414.77
689.73	15353.91
689.86	15213.48
690.00	15171.35
690.13	15143.27
690.27	15061.35
690.41	15054.33
690.54	14946.66
690.68	15005.17
690.81	15068.37
690.95	15183.06
691.08	15133.90
691.22	15218.16
691.35	14848.36
691.49	14984.11
691.62	14794.53
691.76	14726.65
691.89	14520.68
692.03	14413.02
692.16	14436.42
692.30	14286.63
692.43	14349.82
692.57	14324.08
692.70	14218.75
692.84	14115.77
692.97	13970.66
693.11	14291.31
693.24	14022.15
693.38	14083.00
693.51	13816.18
693.65	13994.06
693.78	13699.16
693.92	13872.36
694.05	13596.17
694.19	13448.72
694.32	13860.65
694.45	13593.83
694.59	13078.91
694.72	13558.72
694.86	13282.54
694.99	13062.53
695.13	13130.41
695.26	13226.37
695.39	12877.63
695.53	13327.01
695.66	13123.38
695.80	13167.85
695.93	12905.71
696.07	13055.51
696.20	12842.52
696.33	12809.75
696.47	12671.66
696.60	12856.56
696.73	12779.32
696.87	12669.32
697.00	12524.21
697.14	12645.91
697.27	12222.28
697.40	12374.41
697.54	12194.19
697.67	12409.52
697.80	12269.09
697.94	11995.25
698.07	12065.46
698.21	12004.61
698.34	11852.47
698.47	12142.70
698.61	12187.17
698.74	12379.09
698.87	12070.14
699.01	11899.28
699.14	11784.60
699.27	11733.11
699.40	11672.25
699.54	11716.72
699.67	11838.43
699.80	11487.35
699.94	11370.32
700.07	11353.94
700.20	11255.64
700.34	11382.03
700.47	11077.76
700.60	11206.48
700.73	11496.71
700.87	10934.98
701.00	11164.36
701.13	11342.24
701.26	10974.77
701.40	10927.96
701.53	11129.25
701.66	10885.83
701.79	10913.92
701.93	11037.97
702.06	10857.75
702.19	10686.89
702.32	10555.82
702.46	10497.30
702.59	10579.22
702.72	10429.43
702.85	10415.38
702.99	10333.47
703.12	10394.32
703.25	10244.52
703.38	10403.68
703.51	10256.23
703.65	10139.20
703.78	10120.48
703.91	10090.05
704.04	10211.76
704.17	10197.71
704.31	10038.56
704.44	9956.64
704.57	9886.42
704.70	9837.27
704.83	9706.20
704.96	9942.60
705.10	9549.39
705.23	9535.34
>>>>>End Processed Spectral Data<<<<<
