SpectraSuite Data File
++++++++++++++++++++++++++++++++++++
Date: Fri Oct 18 13:58:13 GMT-05:00 2013
User: bianchi
Dark Spectrum Present: No
Reference Spectrum Present: No
Number of Sampled Component Spectra: 1
Spectrometers: USB2+H05261
Integration Time (usec): 50000 (USB2+H05261)
Spectra Averaged: 1 (USB2+H05261)
Boxcar Smoothing: 0 (USB2+H05261)
Correct for Electrical Dark: No (USB2+H05261)
Strobe/Lamp Enabled: No (USB2+H05261)
Correct for Detector Non-linearity: No (USB2+H05261)
Correct for Stray Light: No (USB2+H05261)
Number of Pixels in Processed Spectrum: 2048
>>>>>Begin Processed Spectral Data<<<<<
365.73	0.00
365.92	0.00
366.12	0.00
366.32	0.00
366.52	0.00
366.72	0.00
366.91	0.00
367.11	0.00
367.31	0.00
367.51	0.00
367.70	0.00
367.90	0.00
368.10	0.00
368.30	0.00
368.49	0.00
368.69	0.00
368.89	0.00
369.09	0.00
369.28	0.00
369.48	0.00
369.68	0.00
369.87	0.00
370.07	0.00
370.27	0.00
370.47	0.00
370.66	105.32
370.86	110.01
371.06	140.43
371.25	194.26
371.45	184.90
371.65	100.64
371.84	175.54
372.04	35.11
372.24	224.69
372.44	182.56
372.63	180.22
372.83	191.92
373.03	117.03
373.22	201.29
373.42	238.73
373.62	266.82
373.81	205.97
374.01	283.20
374.21	196.60
374.40	245.76
374.60	266.82
374.79	264.48
374.99	283.20
375.19	224.69
375.38	238.73
375.58	311.29
375.78	297.25
375.97	245.76
376.17	271.50
376.37	243.42
376.56	203.63
376.76	121.71
376.95	196.60
377.15	271.50
377.35	285.55
377.54	334.70
377.74	215.33
377.93	236.39
378.13	339.38
378.33	290.23
378.52	313.63
378.72	306.61
378.91	264.48
379.11	301.93
379.31	322.99
379.50	355.76
379.70	259.80
379.89	311.29
380.09	294.91
380.28	299.59
380.48	322.99
380.68	280.86
380.87	376.83
381.07	346.40
381.26	285.55
381.46	327.68
381.65	255.12
381.85	292.57
382.04	353.42
382.24	358.10
382.43	327.68
382.63	301.93
382.83	367.46
383.02	341.72
383.22	341.72
383.41	311.29
383.61	299.59
383.80	374.49
384.00	320.65
384.19	400.23
384.39	383.85
384.58	341.72
384.78	414.27
384.97	428.32
385.17	470.45
385.36	372.15
385.56	320.65
385.75	320.65
385.95	423.64
386.14	484.49
386.34	416.62
386.53	404.91
386.72	454.06
386.92	423.64
387.11	454.06
387.31	414.27
387.50	400.23
387.70	470.45
387.89	472.79
388.09	421.30
388.28	425.98
388.48	454.06
388.67	470.45
388.86	566.41
389.06	449.38
389.25	437.68
389.45	505.56
389.64	442.36
389.84	428.32
390.03	414.27
390.22	444.70
390.42	472.79
390.61	486.83
390.81	528.96
391.00	470.45
391.19	505.56
391.39	475.13
391.58	564.07
391.78	421.30
391.97	533.64
392.16	493.85
392.36	540.66
392.55	505.56
392.75	411.93
392.94	634.29
393.13	561.73
393.33	517.26
393.52	559.39
393.71	547.69
393.91	566.41
394.10	596.84
394.29	601.52
394.49	578.11
394.68	634.29
394.88	617.90
395.07	664.71
395.26	587.47
395.46	557.05
395.65	582.79
395.84	592.16
396.04	716.20
396.23	662.37
396.42	662.37
396.62	674.07
396.81	627.26
397.00	627.26
397.19	674.07
397.39	615.56
397.58	685.78
397.77	650.67
397.97	716.20
398.16	739.61
398.35	748.97
398.55	667.05
398.74	643.65
398.93	697.48
399.12	737.27
399.32	732.59
399.51	795.78
399.70	788.76
399.90	699.82
400.09	751.31
400.28	805.14
400.47	816.85
400.67	809.83
400.86	844.93
401.05	922.17
401.24	793.44
401.44	826.21
401.63	868.34
401.82	866.00
402.01	821.53
402.21	821.53
402.40	884.72
402.59	887.06
402.78	861.32
402.97	877.70
403.17	821.53
403.36	844.93
403.55	812.17
403.74	880.04
403.93	922.17
404.13	950.26
404.32	884.72
404.51	922.17
404.70	926.85
404.89	1071.97
405.09	983.02
405.28	917.49
405.47	961.96
405.66	1020.47
405.85	1067.28
406.05	905.79
406.24	1011.11
406.43	968.98
406.62	992.39
406.81	1060.26
407.00	1069.62
407.20	1043.88
407.39	1034.52
407.58	1048.56
407.77	1004.09
407.96	1203.04
408.15	1104.73
408.34	1050.90
408.54	1039.20
408.73	1069.62
408.92	1111.75
409.11	1181.97
409.30	1228.78
409.49	1142.18
409.68	1198.35
409.87	1165.59
410.07	1132.82
410.26	1270.91
410.45	1142.18
410.64	1280.27
410.83	1177.29
411.02	1231.12
411.21	1336.45
411.40	1254.53
411.59	1233.46
411.78	1359.85
411.98	1313.04
412.17	1308.36
412.36	1310.70
412.55	1376.24
412.74	1345.81
412.93	1453.47
413.12	1247.51
413.31	1420.71
413.50	1425.39
413.69	1350.49
413.88	1378.58
414.07	1416.02
414.26	1537.73
414.45	1481.56
414.64	1523.69
414.83	1521.35
415.02	1554.12
415.22	1547.09
415.41	1582.20
415.60	1636.03
415.79	1589.22
415.98	1549.43
416.17	1598.59
416.36	1605.61
416.55	1643.06
416.74	1664.12
416.93	1645.40
417.12	1652.42
417.31	1703.91
417.50	1717.95
417.69	1834.98
417.88	1680.50
418.07	1668.80
418.26	1659.44
418.45	1657.10
418.64	1755.40
418.83	1900.52
419.02	1781.15
419.21	1891.15
419.39	1849.02
419.58	1881.79
419.77	2024.56
419.96	1874.77
420.15	1954.35
420.34	1874.77
420.53	1898.17
420.72	1930.94
420.91	1879.45
421.10	1966.05
421.29	2031.58
421.48	1952.01
421.67	2134.57
421.86	1961.37
422.05	1998.82
422.24	2038.61
422.43	2052.65
422.61	1949.67
422.80	2026.90
422.99	2059.67
423.18	2066.69
423.37	2122.87
423.56	1949.67
423.75	1846.68
423.94	1853.70
424.13	1893.49
424.32	1879.45
424.50	1996.48
424.69	2057.33
424.88	2050.31
425.07	2101.80
425.26	1940.30
425.45	2047.97
425.64	2045.63
425.83	2094.78
426.01	2064.35
426.20	1994.14
426.39	2052.65
426.58	2106.48
426.77	2043.29
426.96	2141.59
427.15	1991.80
427.33	2120.53
427.52	2113.50
427.71	2083.08
427.90	2284.36
428.09	2211.81
428.28	2244.57
428.46	2253.94
428.65	2284.36
428.84	2333.51
429.03	2256.28
429.22	2097.12
429.40	2380.32
429.59	2146.27
429.78	2176.70
429.97	2207.13
430.16	2253.94
430.34	2228.19
430.53	2305.43
430.72	2307.77
430.91	2310.11
431.10	2319.47
431.28	2314.79
431.47	2492.67
431.66	2445.86
431.85	2359.26
432.03	2422.45
432.22	2569.91
432.41	2530.12
432.60	2450.54
432.79	2480.97
432.97	2572.25
433.16	2558.21
433.35	2464.58
433.54	2567.57
433.72	2623.74
433.91	2567.57
434.10	2455.22
434.28	2527.78
434.47	2450.54
434.66	2546.50
434.85	2602.68
435.03	2614.38
435.22	2448.20
435.41	2647.15
435.59	2644.81
435.78	2759.49
435.97	2609.70
436.16	2679.91
436.34	2635.44
436.53	2602.68
436.72	2792.26
436.90	2583.95
437.09	2726.72
437.28	2623.74
437.46	2761.83
437.65	2602.68
437.84	2869.50
438.02	2815.66
438.21	2885.88
438.40	2815.66
438.58	2822.69
438.77	2895.24
438.96	2878.86
439.14	2979.50
439.33	3056.74
439.52	3009.93
439.70	3070.78
439.89	3021.63
440.08	3052.06
440.26	2995.89
440.45	3014.61
440.63	3047.38
440.82	3049.72
441.01	3129.30
441.19	3283.77
441.38	3218.24
441.57	3272.07
441.75	3239.30
441.94	3421.86
442.12	3339.94
442.31	3428.88
442.50	3300.16
442.68	3424.20
442.87	3356.33
443.05	3304.84
443.24	3447.61
443.43	3281.43
443.61	3358.67
443.80	3485.06
443.98	3321.22
444.17	3304.84
444.35	3433.57
444.54	3550.59
444.73	3442.93
444.91	3318.88
445.10	3630.17
445.28	3536.55
445.47	3494.42
445.65	3534.21
445.84	3548.25
446.02	3630.17
446.21	3524.85
446.39	3524.85
446.58	3459.31
446.77	3499.10
446.95	3552.93
447.14	3445.27
447.32	3365.69
447.51	3665.28
447.69	3630.17
447.88	3510.80
448.06	3463.99
448.25	3583.36
448.43	3602.08
448.62	3529.53
448.80	3487.40
448.99	3716.77
449.17	3618.47
449.36	3644.21
449.54	3765.92
449.73	3634.85
449.91	3676.98
450.10	3632.51
450.28	3716.77
450.46	3639.53
450.65	3763.58
450.83	3761.24
451.02	3864.22
451.20	3861.88
451.39	3817.41
451.57	3730.81
451.76	3798.69
451.94	3751.88
452.13	3918.06
452.31	3871.25
452.49	3955.51
452.68	3885.29
452.86	3981.25
453.05	3716.77
453.23	3995.29
453.42	3906.35
453.60	3995.29
453.78	3943.80
453.97	3868.91
454.15	3854.86
454.34	3927.42
454.52	4004.66
454.70	4051.47
454.89	3960.19
455.07	3976.57
455.26	4145.09
455.44	4170.83
455.62	4180.20
455.81	4203.60
455.99	4051.47
456.17	4149.77
456.36	4147.43
456.54	4124.02
456.73	4189.56
456.91	4358.08
457.09	4372.12
457.28	4409.57
457.46	4344.03
457.64	4503.19
457.83	4322.97
458.01	4489.15
458.19	4510.21
458.38	4510.21
458.56	4395.53
458.74	4440.00
458.93	4542.98
459.11	4524.26
459.29	4524.26
459.48	4580.43
459.66	4547.66
459.84	4704.48
460.03	4648.30
460.21	4517.23
460.39	4437.66
460.57	4578.09
460.76	4533.62
460.94	4758.31
461.12	4545.32
461.31	4573.41
461.49	4552.34
461.67	4599.15
461.85	4786.40
462.04	4627.24
462.22	5076.62
462.40	4791.08
462.59	4709.16
462.77	4795.76
462.95	4692.77
463.13	4692.77
463.32	4908.10
463.50	4940.87
463.68	4964.28
463.86	4798.10
464.05	4940.87
464.23	4854.27
464.41	4896.40
464.59	4802.78
464.78	5102.37
464.96	4856.61
465.14	5018.11
465.32	5039.17
465.50	5186.63
465.69	4983.00
465.87	4926.83
466.05	5060.24
466.23	5125.77
466.41	5132.79
466.60	5184.29
466.78	5048.54
466.96	5181.95
467.14	5001.72
467.32	5121.09
467.51	5275.57
467.69	5022.79
467.87	5158.54
468.05	5240.46
468.23	5130.45
468.41	5308.34
468.60	5284.93
468.78	5371.53
468.96	5245.14
469.14	5338.76
469.32	5291.95
469.50	5233.44
469.69	5359.83
469.87	5535.37
470.05	5621.97
470.23	5535.37
470.41	5284.93
470.59	5331.74
470.77	5448.77
470.95	5528.35
471.14	5717.93
471.32	5511.96
471.50	5720.27
471.68	5657.07
471.86	5748.36
472.04	5820.91
472.22	5703.89
472.40	5724.95
472.58	5785.80
472.77	5746.02
472.95	5743.67
473.13	6040.92
473.31	5944.96
473.49	5893.47
473.67	5830.27
473.85	5919.21
474.03	5968.37
474.21	6083.05
474.39	6071.35
474.57	6146.25
474.75	5991.77
474.93	6298.38
475.12	6209.44
475.30	6368.60
475.48	6380.30
475.66	6342.85
475.84	6551.16
476.02	6483.28
476.20	6401.37
476.38	6366.26
476.56	6644.78
476.74	6698.61
476.92	6647.12
477.10	6590.95
477.28	6848.41
477.46	6635.42
477.64	6827.34
477.82	6839.05
478.00	6888.20
478.18	7192.47
478.36	7042.67
478.54	7314.17
478.72	7124.59
478.90	6998.20
479.08	7063.74
479.26	7307.15
479.44	7286.09
479.62	7433.54
479.80	7548.23
479.98	7499.08
480.16	7688.66
480.34	7630.15
480.52	7808.03
480.70	7775.26
480.88	7524.82
481.06	7833.77
481.24	7875.90
481.41	8013.99
481.59	8145.06
481.77	8044.42
481.95	8018.68
482.13	8351.03
482.31	8208.26
482.49	8383.80
482.67	8358.05
482.85	8566.36
483.03	8461.04
483.21	8526.57
483.39	8615.51
483.57	8517.21
483.74	8779.35
483.92	8910.42
484.10	8936.17
484.28	9067.24
484.46	8987.66
484.64	9238.09
484.82	9022.77
485.00	9289.59
485.18	9392.57
485.35	9418.32
485.53	9413.63
485.71	9554.07
485.89	9607.90
486.07	9582.15
486.25	9715.56
486.43	9729.61
486.61	10031.54
486.78	10059.62
486.96	10068.98
487.14	10068.98
487.32	10260.91
487.50	10190.69
487.68	10406.02
487.85	10537.09
488.03	10630.71
488.21	10839.02
488.39	10626.03
488.57	10925.62
488.75	10836.68
488.92	11019.24
489.10	11094.14
489.28	11185.42
489.46	11211.17
489.64	11208.83
489.81	11433.52
489.99	11583.31
490.17	11274.36
490.35	11564.59
490.53	11700.34
490.70	11693.32
490.88	11646.51
491.06	12102.91
491.24	12030.35
491.41	11906.31
491.59	12074.82
491.77	12093.55
491.95	12255.04
492.13	12269.09
492.30	12393.14
492.48	12449.31
492.66	12407.18
492.84	12587.40
493.01	12814.43
493.19	12865.92
493.37	12774.64
493.54	12926.78
493.72	12767.62
493.90	13050.83
494.08	13041.46
494.25	13263.82
494.43	13233.39
494.61	13554.04
494.79	13427.65
494.96	13692.13
495.14	13521.27
495.32	13584.47
495.49	13572.77
495.67	13767.03
495.85	13909.80
496.02	14050.24
496.20	14335.78
496.38	14083.00
496.55	14303.01
496.73	14728.99
496.91	14352.16
497.09	14665.80
497.26	14494.94
497.44	14413.02
497.62	14586.22
497.79	14623.67
497.97	14661.12
498.14	15178.37
498.32	14934.96
498.50	15426.47
498.67	15260.29
498.85	15178.37
499.03	15063.69
499.20	15417.11
499.38	15309.44
499.56	15241.57
499.73	15370.30
499.91	15431.15
500.08	15550.52
500.26	15513.07
500.44	15517.75
500.61	15936.71
500.79	15861.81
500.97	15992.88
501.14	16027.99
501.32	16252.68
501.49	15929.69
501.67	15896.92
501.84	16002.24
502.02	16098.20
502.20	16180.12
502.37	16301.83
502.55	16374.39
502.72	16460.99
502.90	16301.83
503.07	16266.72
503.25	16432.90
503.43	16503.12
503.60	16734.83
503.78	16669.30
503.95	16987.61
504.13	16727.81
504.30	17114.00
504.48	16886.97
504.65	16999.31
504.83	16994.63
505.01	17294.22
505.18	17109.32
505.36	17603.17
505.53	17247.41
505.71	17188.89
505.88	17528.27
506.06	17050.80
506.23	17259.11
506.41	17476.78
506.58	17530.61
506.76	17802.11
506.93	17738.92
507.11	17748.28
507.28	18010.42
507.46	18167.24
507.63	17977.65
507.81	17923.82
507.98	17848.93
508.16	18054.89
508.33	18312.35
508.50	17804.46
508.68	18244.48
508.85	18541.72
509.03	18279.58
509.20	17954.25
509.38	18663.43
509.55	18462.15
509.73	18691.52
509.90	18689.18
510.08	18672.79
510.25	18476.19
510.42	18916.21
510.60	18941.96
510.77	18848.33
510.95	19070.68
511.12	19108.13
511.30	18937.27
511.47	19080.05
511.64	19257.93
511.82	18993.45
511.99	19091.75
512.17	19325.80
512.34	19253.25
512.51	19641.78
512.69	19255.59
512.86	19356.23
513.04	19510.71
513.21	19789.23
513.38	19955.41
513.56	19988.18
513.73	19594.96
513.90	19894.55
514.08	19791.57
514.25	19829.02
514.43	20152.01
514.60	20037.33
514.77	20032.65
514.95	20184.78
515.12	20049.03
515.29	19924.98
515.47	20147.33
515.64	20070.09
515.81	20313.51
515.99	20540.54
516.16	20554.58
516.33	20535.86
516.51	20500.75
516.68	20388.41
516.85	20432.88
517.03	20538.20
517.20	20816.72
517.37	20875.24
517.54	20844.81
517.72	21025.03
517.89	20826.09
518.06	20947.79
518.24	20627.14
518.41	21291.85
518.58	21376.11
518.75	20870.56
518.93	21256.75
519.10	20900.98
519.27	21338.66
519.45	21682.72
519.62	21362.07
519.79	21301.22
519.96	21231.00
520.14	21252.06
520.31	21607.83
520.48	21621.87
520.65	21425.26
520.83	21481.44
521.00	21738.90
521.17	21486.12
521.34	21860.60
521.52	21675.70
521.69	21898.05
521.86	22104.02
522.03	21984.65
522.20	22167.21
522.38	22188.28
522.55	21867.63
522.72	22141.47
522.89	22331.05
523.07	22455.10
523.24	22253.81
523.41	22515.95
523.58	22286.58
523.75	22178.92
523.92	22155.51
524.10	22888.10
524.27	22775.75
524.44	22860.01
524.61	22710.22
524.78	22852.99
524.96	22724.26
525.13	22906.82
525.30	23028.53
525.47	22883.42
525.64	22890.44
525.81	22998.10
525.98	23103.43
526.16	22986.40
526.33	23342.16
526.50	23466.21
526.67	23089.38
526.84	23194.71
527.01	22960.66
527.18	23281.31
527.36	23211.09
527.53	23482.59
527.70	23473.23
527.87	23529.41
528.04	23524.72
528.21	23756.44
528.38	23742.39
528.55	23576.22
528.72	23419.40
528.89	23861.76
529.07	23899.21
529.24	23384.29
529.41	23744.73
529.58	23828.99
529.75	23859.42
529.92	23819.63
530.09	24126.24
530.26	23861.76
530.43	24301.78
530.60	24243.27
530.77	24240.93
530.94	24325.19
531.11	24184.76
531.28	23915.59
531.46	24201.14
531.63	24142.63
531.80	24400.08
531.97	24584.99
532.14	24395.40
532.31	24486.68
532.48	24325.19
532.65	24357.96
532.82	24746.48
532.99	24709.04
533.16	24355.61
533.33	24718.40
533.50	25184.16
533.67	25046.07
533.84	24343.91
534.01	24589.67
534.18	24596.69
534.35	25198.21
534.52	24744.14
534.69	24978.20
534.86	25317.57
535.03	24999.26
535.20	25263.74
535.37	24884.58
535.54	25198.21
535.71	25025.01
535.88	25530.56
536.05	25188.85
536.22	25486.09
536.38	25310.55
536.55	25553.97
536.72	25310.55
536.89	25263.74
537.06	25209.91
537.23	25778.66
537.40	25415.88
537.57	25296.51
537.74	25483.75
537.91	25748.23
538.08	25593.76
538.25	25546.95
538.42	25752.91
538.59	25635.89
538.75	25546.95
538.92	25799.73
539.09	25659.29
539.26	26024.42
539.43	25841.85
539.60	25804.41
539.77	25504.82
539.94	25874.62
540.11	25930.80
540.28	25975.27
540.44	25954.20
540.61	25888.67
540.78	25893.35
540.95	26068.89
541.12	26260.81
541.29	26178.89
541.46	26228.04
541.62	26132.08
541.79	26209.32
541.96	25912.07
542.13	26342.73
542.30	26331.03
542.47	26015.05
542.63	26513.59
542.80	26450.39
542.97	26703.17
543.14	26735.94
543.31	26417.63
543.48	26277.19
543.64	26815.52
543.81	27225.11
543.98	26824.88
544.15	27035.53
544.32	26888.07
544.48	26883.39
544.65	26803.82
544.82	27094.04
544.99	26960.63
545.16	27110.43
545.32	26815.52
545.49	27288.31
545.66	27136.17
545.83	27604.28
546.00	27704.92
546.16	27328.10
546.33	27014.46
546.50	26895.10
546.67	27363.20
546.83	27211.07
547.00	27112.77
547.17	27431.08
547.34	27211.07
547.50	27585.55
547.67	27625.34
547.84	27494.27
548.00	27573.85
548.17	27821.95
548.34	27419.38
548.51	27667.47
548.67	27742.37
548.84	27782.16
549.01	27800.88
549.18	27447.46
549.34	27534.06
549.51	27878.12
549.68	27894.50
549.84	27718.96
550.01	28077.07
550.18	27826.63
550.34	27707.26
550.51	28053.66
550.68	27686.20
550.84	27789.18
551.01	28259.63
551.18	27997.49
551.34	27843.01
551.51	27920.25
551.68	27978.76
551.84	28123.88
552.01	28107.49
552.18	28465.60
552.34	28285.37
552.51	28407.08
552.68	27976.42
552.84	28364.95
553.01	28294.74
553.18	28334.53
553.34	28617.73
553.51	28393.04
553.67	28580.28
553.84	28617.73
554.01	28760.50
554.17	28430.49
554.34	28432.83
554.51	28540.49
554.67	28526.45
554.84	28821.36
555.00	28332.18
555.17	28601.35
555.33	28533.47
555.50	28687.95
555.67	28402.40
555.83	28545.17
556.00	28498.36
556.16	28877.53
556.33	28699.65
556.50	28751.14
556.66	29069.45
556.83	28797.95
556.99	28877.53
557.16	28992.22
557.32	29305.85
557.49	29055.41
557.65	28381.34
557.82	28552.20
557.98	29235.63
558.15	29027.32
558.32	29097.54
558.48	29228.61
558.65	29020.30
558.81	28938.38
558.98	28945.41
559.14	29048.39
559.31	28893.91
559.47	28919.66
559.64	29027.32
559.80	29228.61
559.97	29507.13
560.13	29088.18
560.30	28854.12
560.46	29282.44
560.63	29275.42
560.79	29252.02
560.96	29284.78
561.12	29235.63
561.29	29214.57
561.45	29142.01
561.61	29586.71
561.78	29692.04
561.94	29469.69
562.11	29689.70
562.27	29387.77
562.44	29233.29
562.60	29493.09
562.77	29350.32
562.93	29249.67
563.10	29675.65
563.26	29582.03
563.42	29575.01
563.59	29434.58
563.75	29809.06
563.92	29853.53
564.08	29696.72
564.24	29104.56
564.41	29315.21
564.57	29610.12
564.74	29675.65
564.90	29790.34
565.07	29865.24
565.23	29958.86
565.39	29457.98
565.56	30029.07
565.72	29486.07
565.88	29518.84
566.05	29621.82
566.21	29490.75
566.38	29883.96
566.54	29921.41
566.70	29848.85
566.87	29813.74
567.03	29404.15
567.19	29722.46
567.36	30087.59
567.52	29947.15
567.68	29778.64
567.85	29703.74
568.01	29879.28
568.17	29862.90
568.34	30333.34
568.50	29736.51
568.66	29745.87
568.83	30279.51
568.99	29841.83
569.15	29696.72
569.32	30045.46
569.48	29731.83
569.64	29788.00
569.81	29659.27
569.97	29589.05
570.13	29879.28
570.30	30157.80
570.46	30188.23
570.62	30057.16
570.78	30043.12
570.95	30033.75
571.11	30141.42
571.27	29907.37
571.43	29465.00
571.60	30125.04
571.76	29986.94
571.92	30300.58
572.09	29902.68
572.25	30394.20
572.41	30171.85
572.57	30281.85
572.74	30000.99
572.90	30246.74
573.06	30019.71
573.22	30319.30
573.38	30333.34
573.55	30323.98
573.71	30714.85
573.87	30441.01
574.03	29865.24
574.20	29926.09
574.36	29947.15
574.52	29694.38
574.68	29792.68
574.84	30160.14
575.01	30270.15
575.17	30323.98
575.33	30213.98
575.49	30387.18
575.65	30216.32
575.82	30328.66
575.98	30232.70
576.14	30274.83
576.30	30103.97
576.46	30066.52
576.62	29947.15
576.79	30361.43
576.95	30368.45
577.11	30092.27
577.27	30176.53
577.43	30335.68
577.59	30235.04
577.75	30183.55
577.92	30335.68
578.08	30319.30
578.24	30050.14
578.40	30239.72
578.56	30305.26
578.72	30686.76
578.88	30511.22
579.04	30637.61
579.21	30548.67
579.37	30614.21
579.53	30356.75
579.69	30441.01
579.85	30183.55
580.01	30225.68
580.17	30157.80
580.33	30298.23
580.49	30642.29
580.65	30497.18
580.82	30525.27
580.98	30607.19
581.14	30522.93
581.30	30464.41
581.46	30333.34
581.62	30382.49
581.78	30277.17
581.94	30192.91
582.10	30370.79
582.26	30515.90
582.42	30422.28
582.58	30143.76
582.74	30607.19
582.90	30359.09
583.06	30611.87
583.22	30572.08
583.38	30764.00
583.54	30401.22
583.70	30354.41
583.86	30096.95
584.02	30490.16
584.18	30361.43
584.34	30672.72
584.50	30529.95
584.66	30354.41
584.82	30520.59
584.98	30871.67
585.14	30408.24
585.30	30101.63
585.46	30375.47
585.62	30551.01
585.78	30696.13
585.94	30284.19
586.10	30562.72
586.26	30391.86
586.42	30712.51
586.58	30731.23
586.74	30366.11
586.90	30508.88
587.06	30302.92
587.22	30689.10
587.38	30483.14
587.54	30803.79
587.70	30506.54
587.86	30974.65
588.02	30658.68
588.18	30993.37
588.34	30747.62
588.49	30778.04
588.65	30829.54
588.81	30614.21
588.97	30560.37
589.13	30611.87
589.29	30579.10
589.45	30670.38
589.61	30513.56
589.77	31089.34
589.93	31033.16
590.08	30827.20
590.24	30995.71
590.40	31094.02
590.56	31225.09
590.72	30787.41
590.88	30628.25
591.04	30560.37
591.20	31257.85
591.35	30843.58
591.51	31150.19
591.67	31194.66
591.83	31463.82
591.99	30646.97
592.15	31061.25
592.31	31129.12
592.46	30918.48
592.62	30352.07
592.78	30820.17
592.94	30991.03
593.10	30834.22
593.26	30775.70
593.41	30976.99
593.57	31061.25
593.73	31012.10
593.89	31126.78
594.05	30834.22
594.20	30988.69
594.36	31131.47
594.52	30829.54
594.68	31264.88
594.84	30906.77
594.99	31138.49
595.15	31201.68
595.31	31360.84
595.47	31281.26
595.62	31248.49
595.78	31021.46
595.94	30604.84
596.10	31227.43
596.25	31353.82
596.41	30918.48
596.57	30471.43
596.73	30726.55
596.88	30848.26
597.04	30850.60
597.20	31283.60
597.36	31311.69
597.51	31168.91
597.67	31108.06
597.83	31166.57
597.99	30824.86
598.14	30897.41
598.30	31222.75
598.46	30656.34
598.61	31299.98
598.77	30859.96
598.93	31260.20
599.09	31000.40
599.24	31747.03
599.40	31545.74
599.56	31480.21
599.71	31028.48
599.87	31449.78
600.03	30841.24
600.18	30934.86
600.34	30991.03
600.50	31281.26
600.65	30857.62
600.81	31213.38
600.97	31182.96
601.12	31367.86
601.28	31026.14
601.44	31241.47
601.59	31094.02
601.75	30834.22
601.91	31295.30
602.06	30960.61
602.22	31225.09
602.37	30597.82
602.53	31292.96
602.69	31115.08
602.84	31110.40
603.00	31058.91
603.16	31531.70
603.31	31349.14
603.47	31421.69
603.62	31175.94
603.78	31475.52
603.94	30991.03
604.09	30841.24
604.25	31133.81
604.40	31037.84
604.56	31211.04
604.71	31192.32
604.87	31248.49
605.03	31353.82
605.18	31016.78
605.34	31159.55
605.49	30775.70
605.65	31042.53
605.80	30831.88
605.96	30899.75
606.12	31262.54
606.27	31452.12
606.43	30740.60
606.58	31117.42
606.74	31042.53
606.89	31026.14
607.05	31299.98
607.20	30946.56
607.36	31250.83
607.51	31271.90
607.67	30792.09
607.82	30866.98
607.98	30745.28
608.13	31222.75
608.29	31159.55
608.44	30808.47
608.60	30789.75
608.75	31175.94
608.91	31213.38
609.06	30890.39
609.22	31356.16
609.37	30642.29
609.53	31316.37
609.68	30728.89
609.84	30422.28
609.99	30827.20
610.15	31035.50
610.30	30515.90
610.46	31087.00
610.61	31030.82
610.76	30937.20
610.92	31267.22
611.07	30738.26
611.23	30675.06
611.38	30815.49
611.54	30562.72
611.69	30181.21
611.84	30675.06
612.00	30361.43
612.15	30541.65
612.31	30792.09
612.46	30651.66
612.62	30911.46
612.77	30710.17
612.92	30789.75
613.08	30911.46
613.23	30775.70
613.39	30691.44
613.54	30644.63
613.69	30625.91
613.85	30436.33
614.00	30689.10
614.15	30766.34
614.31	30300.58
614.46	30991.03
614.62	30820.17
614.77	30548.67
614.92	30726.55
615.08	30567.40
615.23	30457.39
615.38	30473.78
615.54	30562.72
615.69	30363.77
615.84	30122.69
616.00	30342.70
616.15	30417.60
616.30	30717.19
616.46	30382.49
616.61	30469.09
616.76	30855.28
616.92	30419.94
617.07	30272.49
617.22	30185.89
617.37	29930.77
617.53	30593.14
617.68	30225.68
617.83	30146.10
617.99	30396.54
618.14	29844.17
618.29	29909.71
618.45	30031.41
618.60	30071.20
618.75	30302.92
618.90	29865.24
619.06	30293.55
619.21	30143.76
619.36	30230.36
619.51	29862.90
619.67	29715.44
619.82	29825.45
619.97	30136.74
620.12	29455.64
620.28	29741.19
620.43	30232.70
620.58	29731.83
620.73	29982.26
620.89	30110.99
621.04	30036.09
621.19	30031.41
621.34	30188.23
621.49	30235.04
621.65	30054.82
621.80	30242.06
621.95	29448.62
622.10	29715.44
622.25	29771.61
622.41	29869.92
622.56	29670.97
622.71	29853.53
622.86	29771.61
623.01	29600.76
623.16	29436.92
623.32	29514.16
623.47	29673.31
623.62	29537.56
623.77	29544.58
623.92	29443.94
624.07	29720.12
624.23	29776.30
624.38	29717.78
624.53	29565.65
624.68	29809.06
624.83	29509.47
624.98	30017.37
625.13	29397.13
625.29	29816.08
625.44	29385.43
625.59	29390.11
625.74	29495.43
625.89	29298.83
626.04	29230.95
626.19	29223.93
626.34	29027.32
626.49	29223.93
626.65	29291.80
626.80	29287.12
626.95	29317.55
627.10	29371.38
627.25	29383.09
627.40	28945.41
627.55	29357.34
627.70	29001.58
627.85	29298.83
628.00	29010.94
628.15	29078.82
628.30	29032.00
628.45	29244.99
628.60	28737.10
628.76	29043.71
628.91	29024.98
629.06	29090.52
629.21	28875.19
629.36	29165.42
629.51	29053.07
629.66	28912.64
629.81	28746.46
629.96	28540.49
630.11	28596.67
630.26	29139.67
630.41	28910.30
630.56	28807.31
630.71	28591.98
630.86	28451.55
631.01	28957.11
631.16	28683.27
631.31	28760.50
631.46	28807.31
631.61	28573.26
631.76	28643.48
631.91	28489.00
632.06	28566.24
632.21	28371.97
632.36	28545.17
632.51	28311.12
632.66	28329.84
632.81	28606.03
632.96	28596.67
633.10	28730.08
633.25	28517.09
633.40	28816.68
633.55	28240.90
633.70	28208.14
633.85	27960.04
634.00	28376.66
634.15	28173.03
634.30	28437.51
634.45	28009.19
634.60	28182.39
634.75	28315.80
634.90	28238.56
635.05	28456.23
635.19	28430.49
635.34	28428.15
635.49	28168.35
635.64	28528.79
635.79	28547.51
635.94	28058.34
636.09	28531.13
636.24	27985.79
636.39	28044.30
636.53	28126.22
636.68	27922.59
636.83	28166.01
636.98	27761.09
637.13	27744.71
637.28	27999.83
637.43	28041.96
637.57	28034.94
637.72	27564.49
637.87	27866.42
638.02	27976.42
638.17	27976.42
638.32	27594.92
638.46	27957.70
638.61	27653.43
638.76	27323.41
638.91	27674.49
639.06	28002.17
639.20	27709.60
639.35	28077.07
639.50	27548.11
639.65	28123.88
639.80	27803.22
639.94	27828.97
640.09	27716.62
640.24	28002.17
640.39	27620.66
640.54	27243.84
640.68	27583.21
640.83	27445.12
640.98	27178.30
641.13	27545.76
641.27	27473.21
641.42	27344.48
641.57	27426.40
641.72	27700.24
641.86	27564.49
642.01	27391.29
642.16	27182.98
642.31	27503.64
642.45	27510.66
642.60	27040.21
642.75	27166.60
642.90	27204.05
643.04	27140.85
643.19	27246.18
643.34	27384.27
643.48	27374.91
643.63	27353.84
643.78	27513.00
643.93	27300.01
644.07	27538.74
644.22	27318.73
644.37	27393.63
644.51	27080.00
644.66	27201.71
644.81	27241.50
644.95	26934.88
645.10	27007.44
645.25	26838.92
645.39	27028.51
645.54	26700.83
645.69	26988.72
645.83	26794.45
645.98	27281.28
646.13	27077.66
646.27	26869.35
646.42	26747.64
646.57	27267.24
646.71	27110.43
646.86	27309.37
647.00	26902.12
647.15	27115.11
647.30	26600.19
647.44	26553.38
647.59	26906.80
647.74	26831.90
647.88	26841.26
648.03	26609.55
648.17	26927.86
648.32	26845.94
648.47	26993.40
648.61	27344.48
648.76	26981.70
648.90	27140.85
649.05	26803.82
649.20	26288.90
649.34	26731.26
649.49	25895.69
649.63	26618.91
649.78	26686.79
649.92	26228.04
650.07	27030.85
650.21	26511.25
650.36	26749.98
650.51	26576.78
650.65	26661.04
650.80	26558.06
650.94	26859.99
651.09	26705.51
651.23	26450.39
651.38	26714.87
651.52	26298.26
651.67	26251.45
651.81	26380.18
651.96	26391.88
652.10	26284.22
652.25	26331.03
652.39	26663.38
652.54	26529.97
652.68	26593.17
652.83	26277.19
652.97	26733.60
653.12	26253.79
653.26	25930.80
653.41	26265.49
653.55	26010.37
653.70	25907.39
653.84	25661.63
653.99	25947.18
654.13	26031.44
654.27	25795.04
654.42	26237.41
654.56	26150.81
654.71	26368.48
654.85	25991.65
655.00	26181.23
655.14	26068.89
655.29	26001.01
655.43	26057.18
655.57	26125.06
655.72	25713.13
655.86	25764.62
656.01	25685.04
656.15	25982.29
656.30	25694.40
656.44	25874.62
656.58	25720.15
656.73	25699.08
656.87	25914.41
657.01	25687.38
657.16	25708.44
657.30	25802.07
657.45	25900.37
657.59	25572.69
657.73	25500.14
657.88	25790.36
658.02	25685.04
658.16	25539.93
658.31	25472.05
658.45	25458.01
658.60	25568.01
658.74	25577.37
658.88	25902.71
659.03	25249.70
659.17	25502.48
659.31	25493.12
659.46	25301.19
659.60	25773.98
659.74	25078.84
659.89	25062.46
660.03	25319.92
660.17	25216.93
660.32	25305.87
660.46	25146.72
660.60	24666.91
660.74	24992.24
660.89	25062.46
661.03	24737.12
661.17	25074.16
661.32	24830.74
661.46	25333.96
661.60	24915.00
661.74	25202.89
661.89	25062.46
662.03	24842.45
662.17	24882.24
662.31	24907.98
662.46	25088.20
662.60	24882.24
662.74	24582.65
662.88	24507.75
663.03	24233.91
663.17	24500.73
663.31	24154.33
663.45	24451.58
663.60	24439.87
663.74	24505.41
663.88	24395.40
664.02	24357.96
664.17	24863.51
664.31	24503.07
664.45	24439.87
664.59	24456.26
664.73	24224.54
664.88	24116.88
665.02	23838.36
665.16	24343.91
665.30	23913.25
665.44	24034.96
665.59	23857.08
665.73	24121.56
665.87	23964.75
666.01	24341.57
666.15	24128.58
666.29	23903.89
666.44	23828.99
666.58	23857.08
666.72	24271.36
666.86	24095.82
667.00	23711.97
667.14	23506.00
667.28	23424.08
667.43	23470.89
667.57	23281.31
667.71	23513.02
667.85	23690.90
667.99	23288.33
668.13	23190.03
668.27	23557.49
668.41	23625.37
668.56	23122.15
668.70	23864.10
668.84	23601.96
668.98	23487.28
669.12	23534.09
669.26	23126.83
669.40	23161.94
669.54	23477.91
669.68	22955.97
669.82	23019.17
669.96	22834.27
670.10	22590.85
670.25	22801.50
670.39	22740.64
670.53	22642.34
670.67	22799.16
670.81	22740.64
670.95	22904.48
671.09	22960.66
671.23	22752.35
671.37	22576.81
671.51	22642.34
671.65	22742.99
671.79	22583.83
671.93	22469.14
672.07	22808.52
672.21	22675.11
672.35	22281.90
672.49	22298.28
672.63	22483.19
672.77	22036.14
672.91	22064.23
673.05	21951.88
673.19	22249.13
673.33	22019.76
673.47	22258.49
673.61	22087.64
673.75	22270.20
673.89	22022.10
674.03	21963.59
674.17	21785.71
674.31	22073.59
674.45	21771.66
674.59	21933.16
674.73	21869.97
674.87	21804.43
675.01	21586.76
675.15	21357.39
675.29	21659.32
675.43	21261.43
675.56	21598.46
675.70	21432.29
675.84	21530.59
675.98	20814.38
676.12	21504.84
676.26	21528.25
676.40	21142.06
676.54	21057.80
676.68	21057.80
676.82	20692.68
676.96	20938.43
677.10	20751.19
677.23	20673.95
677.37	20702.04
677.51	20884.60
677.65	20760.55
677.79	19889.87
677.93	20308.83
678.07	20561.61
678.21	20091.16
678.34	20472.67
678.48	20297.13
678.62	19992.86
678.76	20116.90
678.90	19859.45
679.04	20027.96
679.18	20226.91
679.31	19716.67
679.45	19796.25
679.59	19730.72
679.73	19501.34
679.87	19517.73
680.00	19662.84
680.14	19534.11
680.28	19592.62
680.42	19683.91
680.56	19412.40
680.70	19571.56
680.83	19742.42
680.97	19403.04
681.11	19356.23
681.25	19154.94
681.39	19145.58
681.52	19269.63
681.66	18757.05
681.80	18815.57
681.94	18972.38
682.07	19012.17
682.21	18745.35
682.35	18216.39
682.49	18750.03
682.62	18562.79
682.76	18728.97
682.90	18270.22
683.04	18628.32
683.17	18370.86
683.31	18125.11
683.45	18398.95
683.59	18553.43
683.72	18160.22
683.86	18164.90
684.00	18218.73
684.13	17879.35
684.27	17778.71
684.41	17802.11
684.55	17970.63
684.68	17736.58
684.82	17645.30
684.96	17736.58
685.09	17600.83
685.23	17334.01
685.37	17446.35
685.50	17668.70
685.64	17514.23
685.78	17338.69
685.91	17312.94
686.05	17490.82
686.19	17284.86
686.32	17296.56
686.46	16856.54
686.60	16978.25
686.73	16840.15
686.87	16996.97
687.01	16585.04
687.14	16912.71
687.28	16582.70
687.42	16453.97
687.55	16575.67
687.69	16739.51
687.82	16521.84
687.96	16570.99
688.10	16512.48
688.23	16290.13
688.37	16294.81
688.50	16472.69
688.64	16430.56
688.78	16304.17
688.91	16018.63
689.05	15955.43
689.18	15868.83
689.32	15618.39
689.46	15983.52
689.59	15623.08
689.73	15587.97
689.86	15613.71
690.00	15452.22
690.13	15475.62
690.27	15609.03
690.41	15740.10
690.54	15683.93
690.68	15569.24
690.81	15414.77
690.95	15115.18
691.08	15096.46
691.22	15489.67
691.35	15070.71
691.49	15194.76
691.62	15213.48
691.76	15019.22
691.89	14672.82
692.03	14801.55
692.16	14911.55
692.30	14651.75
692.43	14574.52
692.57	14757.08
692.70	14635.37
692.84	14607.28
692.97	14413.02
693.11	14520.68
693.24	14464.51
693.38	14485.58
693.51	14090.02
693.65	14106.41
693.78	14155.56
693.92	14223.44
694.05	14370.89
694.19	13891.08
694.32	13867.67
694.45	13642.98
694.59	13769.37
694.72	13614.90
694.86	13771.71
694.99	13542.34
695.13	13422.97
695.26	13298.92
695.39	13277.86
695.53	13507.23
695.66	13399.57
695.80	13331.69
695.93	13708.52
696.07	13233.39
696.20	13451.06
696.33	13212.32
696.47	13408.93
696.60	12915.08
696.73	13034.44
696.87	12989.97
697.00	12933.80
697.14	12973.59
697.27	12610.81
697.40	12894.01
697.54	12596.76
697.67	12798.05
697.80	12552.29
697.94	12624.85
698.07	12404.84
698.21	12257.39
698.34	12463.35
698.47	12456.33
698.61	12327.60
698.74	12528.89
698.87	12505.48
699.01	12131.00
699.14	12032.69
699.27	11953.12
699.40	12030.35
699.54	11929.71
699.67	11861.84
699.80	11735.45
699.94	11492.03
700.07	11737.79
700.20	11707.36
700.34	11627.78
700.47	11845.45
700.60	11613.74
700.73	11648.85
700.87	11391.39
701.00	11466.28
701.13	11248.61
701.26	11250.96
701.40	11473.31
701.53	11438.20
701.66	11239.25
701.79	11211.17
701.93	11288.40
702.06	11047.33
702.19	11094.14
702.32	10949.03
702.46	10839.02
702.59	10537.09
702.72	10693.91
702.85	10553.48
702.99	10696.25
703.12	10764.12
703.25	10623.69
703.38	10651.78
703.51	10438.79
703.65	10483.26
703.78	10272.61
703.91	10396.66
704.04	10579.22
704.17	10525.39
704.31	10420.06
704.44	10164.95
704.57	10246.87
704.70	10139.20
704.83	10052.60
704.96	10164.95
705.10	10038.56
705.23	10155.58
>>>>>End Processed Spectral Data<<<<<
