SpectraSuite Data File
++++++++++++++++++++++++++++++++++++
Date: Fri Oct 18 13:58:18 GMT-05:00 2013
User: bianchi
Dark Spectrum Present: No
Reference Spectrum Present: No
Number of Sampled Component Spectra: 1
Spectrometers: USB2+H05261
Integration Time (usec): 50000 (USB2+H05261)
Spectra Averaged: 1 (USB2+H05261)
Boxcar Smoothing: 0 (USB2+H05261)
Correct for Electrical Dark: No (USB2+H05261)
Strobe/Lamp Enabled: No (USB2+H05261)
Correct for Detector Non-linearity: No (USB2+H05261)
Correct for Stray Light: No (USB2+H05261)
Number of Pixels in Processed Spectrum: 2048
>>>>>Begin Processed Spectral Data<<<<<
365.73	0.00
365.92	0.00
366.12	0.00
366.32	0.00
366.52	0.00
366.72	0.00
366.91	0.00
367.11	0.00
367.31	0.00
367.51	0.00
367.70	0.00
367.90	0.00
368.10	0.00
368.30	0.00
368.49	0.00
368.69	0.00
368.89	0.00
369.09	0.00
369.28	0.00
369.48	0.00
369.68	0.00
369.87	0.00
370.07	0.00
370.27	0.00
370.47	0.00
370.66	14.04
370.86	46.81
371.06	140.43
371.25	128.73
371.45	105.32
371.65	95.96
371.84	175.54
372.04	163.84
372.24	133.41
372.44	128.73
372.63	124.05
372.83	215.33
373.03	159.16
373.22	177.88
373.42	266.82
373.62	330.02
373.81	234.05
374.01	262.14
374.21	156.82
374.40	201.29
374.60	266.82
374.79	271.50
374.99	243.42
375.19	266.82
375.38	273.84
375.58	255.12
375.78	290.23
375.97	269.16
376.17	280.86
376.37	250.44
376.56	320.65
376.76	252.78
376.95	220.01
377.15	245.76
377.35	332.36
377.54	208.31
377.74	255.12
377.93	301.93
378.13	304.27
378.33	311.29
378.52	320.65
378.72	365.12
378.91	337.04
379.11	262.14
379.31	346.40
379.50	238.73
379.70	423.64
379.89	341.72
380.09	306.61
380.28	280.86
380.48	294.91
380.68	283.20
380.87	292.57
381.07	334.70
381.26	334.70
381.46	330.02
381.65	372.15
381.85	250.44
382.04	308.95
382.24	374.49
382.43	294.91
382.63	365.12
382.83	346.40
383.02	411.93
383.22	477.47
383.41	306.61
383.61	313.63
383.80	318.31
384.00	395.55
384.19	337.04
384.39	414.27
384.58	400.23
384.78	409.59
384.97	376.83
385.17	404.91
385.36	418.96
385.56	344.06
385.75	339.38
385.95	407.25
386.14	423.64
386.34	362.78
386.53	435.34
386.72	400.23
386.92	458.74
387.11	428.32
387.31	442.36
387.50	454.06
387.70	482.15
387.89	477.47
388.09	482.15
388.28	414.27
388.48	484.49
388.67	423.64
388.86	430.66
389.06	503.22
389.25	484.49
389.45	437.68
389.64	465.77
389.84	428.32
390.03	472.79
390.22	475.13
390.42	507.90
390.61	400.23
390.81	486.83
391.00	486.83
391.19	533.64
391.39	489.17
391.58	472.79
391.78	510.24
391.97	514.92
392.16	505.56
392.36	589.82
392.55	545.34
392.75	479.81
392.94	578.11
393.13	526.62
393.33	535.98
393.52	538.32
393.71	648.33
393.91	538.32
394.10	512.58
394.29	500.87
394.49	550.03
394.68	603.86
394.88	631.94
395.07	648.33
395.26	634.29
395.46	545.34
395.65	624.92
395.84	634.29
396.04	606.20
396.23	543.00
396.42	636.63
396.62	624.92
396.81	638.97
397.00	596.84
397.19	678.76
397.39	676.41
397.58	730.25
397.77	664.71
397.97	763.01
398.16	702.16
398.35	702.16
398.55	674.07
398.74	627.26
398.93	674.07
399.12	720.88
399.32	688.12
399.51	711.52
399.70	737.27
399.90	760.67
400.09	730.25
400.28	807.48
400.47	720.88
400.67	781.74
400.86	734.93
401.05	793.44
401.24	763.01
401.44	741.95
401.63	751.31
401.82	741.95
402.01	816.85
402.21	828.55
402.40	777.06
402.59	856.64
402.78	837.91
402.97	884.72
403.17	950.26
403.36	866.00
403.55	854.30
403.74	828.55
403.93	938.55
404.13	901.11
404.32	968.98
404.51	901.11
404.70	903.45
404.89	926.85
405.09	931.53
405.28	926.85
405.47	978.34
405.66	950.26
405.85	936.21
406.05	961.96
406.24	997.07
406.43	1029.84
406.62	978.34
406.81	1048.56
407.00	1057.92
407.20	992.39
407.39	947.92
407.58	1034.52
407.77	1039.20
407.96	1055.58
408.15	1053.24
408.34	1116.44
408.54	1135.16
408.73	1130.48
408.92	1107.07
409.11	1081.33
409.30	1210.06
409.49	1165.59
409.68	1198.35
409.87	1128.14
410.07	1212.40
410.26	1245.16
410.45	1109.41
410.64	1160.91
410.83	1207.72
411.02	1233.46
411.21	1238.14
411.40	1170.27
411.59	1270.91
411.78	1299.00
411.98	1249.85
412.17	1359.85
412.36	1299.00
412.55	1256.87
412.74	1423.05
412.93	1320.06
413.12	1399.64
413.31	1420.71
413.50	1383.26
413.69	1453.47
413.88	1399.64
414.07	1416.02
414.26	1453.47
414.45	1530.71
414.64	1453.47
414.83	1472.20
415.02	1451.13
415.22	1523.69
415.41	1502.62
415.60	1579.86
415.79	1474.54
415.98	1575.18
416.17	1610.29
416.36	1530.71
416.55	1682.85
416.74	1643.06
416.93	1617.31
417.12	1689.87
417.31	1654.76
417.50	1699.23
417.69	1732.00
417.88	1715.61
418.07	1678.16
418.26	1722.63
418.45	1870.09
418.64	1902.86
418.83	1788.17
419.02	1797.53
419.21	1820.94
419.39	1846.68
419.58	1685.19
419.77	1863.07
419.96	1853.70
420.15	1827.96
420.34	1895.83
420.53	1893.49
420.72	1930.94
420.91	1881.79
421.10	1937.96
421.29	2015.20
421.48	1956.69
421.67	1949.67
421.86	1870.09
422.05	1970.73
422.24	1935.62
422.43	1963.71
422.61	2005.84
422.80	1860.73
422.99	2090.10
423.18	1966.05
423.37	2108.82
423.56	2076.06
423.75	1916.90
423.94	2022.22
424.13	1860.73
424.32	2017.54
424.50	1977.75
424.69	2078.40
424.88	2108.82
425.07	1944.99
425.26	1966.05
425.45	2005.84
425.64	1987.11
425.83	1928.60
426.01	2017.54
426.20	2005.84
426.39	2134.57
426.58	1966.05
426.77	2003.50
426.96	2078.40
427.15	2157.97
427.33	2179.04
427.52	2122.87
427.71	2118.18
427.90	2076.06
428.09	2141.59
428.28	2129.89
428.46	2230.53
428.65	2242.23
428.84	2293.72
429.03	2246.91
429.22	2069.03
429.40	2228.19
429.59	2319.47
429.78	2059.67
429.97	2244.57
430.16	2289.04
430.34	2263.30
430.53	2260.96
430.72	2284.36
430.91	2305.43
431.10	2319.47
431.28	2373.30
431.47	2359.26
431.66	2328.83
431.85	2296.07
432.03	2342.88
432.22	2452.88
432.41	2373.30
432.60	2466.92
432.79	2452.88
432.97	2380.32
433.16	2417.77
433.35	2485.65
433.54	2527.78
433.72	2441.18
433.91	2506.71
434.10	2506.71
434.28	2518.42
434.47	2452.88
434.66	2534.80
434.85	2616.72
435.03	2640.12
435.22	2555.86
435.41	2672.89
435.59	2567.57
435.78	2682.25
435.97	2607.36
436.16	2637.78
436.34	2672.89
436.53	2700.98
436.72	2626.08
436.90	2506.71
437.09	2815.66
437.28	2595.65
437.46	2715.02
437.65	2635.44
437.84	2761.83
438.02	2654.17
438.21	2846.09
438.40	2682.25
438.58	2890.56
438.77	2857.79
438.96	2937.37
439.14	2991.20
439.33	2860.13
439.52	2876.52
439.70	3030.99
439.89	3002.91
440.08	3070.78
440.26	3141.00
440.45	2984.18
440.63	3066.10
440.82	3143.34
441.01	3023.97
441.19	3180.79
441.38	3208.87
441.57	3241.64
441.75	3304.84
441.94	3162.06
442.12	3258.03
442.31	3349.31
442.50	3344.63
442.68	3260.37
442.87	3206.53
443.05	3445.27
443.24	3377.39
443.43	3337.60
443.61	3426.54
443.80	3426.54
443.98	3344.63
444.17	3297.81
444.35	3342.28
444.54	3492.08
444.73	3440.59
444.91	3426.54
445.10	3414.84
445.28	3536.55
445.47	3424.20
445.65	3515.48
445.84	3379.73
446.02	3344.63
446.21	3393.78
446.39	3513.14
446.58	3510.80
446.77	3534.21
446.95	3325.90
447.14	3412.50
447.32	3510.80
447.51	3487.40
447.69	3485.06
447.88	3520.17
448.06	3459.31
448.25	3583.36
448.43	3508.46
448.62	3480.38
448.80	3550.59
448.99	3578.68
449.17	3639.53
449.36	3403.14
449.54	3602.08
449.73	3592.72
449.91	3676.98
450.10	3674.64
450.28	3716.77
450.46	3794.01
450.65	3730.81
450.83	3852.52
451.02	3599.74
451.20	3801.03
451.39	3660.60
451.57	3765.92
451.76	3679.32
451.94	3927.42
452.13	3873.59
452.31	3843.16
452.49	3705.07
452.68	3758.90
452.86	3747.20
453.05	3971.89
453.23	3934.44
453.42	3735.50
453.60	3941.46
453.78	3985.93
453.97	3882.95
454.15	3934.44
454.34	3976.57
454.52	3875.93
454.70	3999.98
454.89	3999.98
455.07	4084.23
455.26	4170.83
455.44	4058.49
455.62	4159.13
455.81	4049.13
455.99	4109.98
456.17	4161.47
456.36	4119.34
456.54	4203.60
456.73	4161.47
456.91	4299.56
457.09	4196.58
457.28	4423.61
457.46	4191.90
457.64	4416.59
457.83	4273.82
458.01	4283.18
458.19	4358.08
458.38	4278.50
458.56	4360.42
458.74	4400.21
458.93	4332.33
459.11	4411.91
459.29	4416.59
459.48	4526.60
459.66	4262.12
459.84	4561.70
460.03	4482.13
460.21	4421.27
460.39	4550.00
460.57	4578.09
460.76	4737.24
460.94	4688.09
461.12	4573.41
461.31	4617.88
461.49	4589.79
461.67	4578.09
461.85	4805.12
462.04	4695.11
462.22	4975.98
462.40	4667.03
462.59	4784.06
462.77	4786.40
462.95	4732.56
463.13	4809.80
463.32	4748.95
463.50	4926.83
463.68	4919.81
463.86	4870.65
464.05	4903.42
464.23	4770.01
464.41	5032.15
464.59	4847.25
464.78	4947.89
464.96	4805.12
465.14	4901.08
465.32	4994.70
465.50	5078.96
465.69	5139.82
465.87	4978.32
466.05	4919.81
466.23	4943.21
466.41	5036.83
466.60	5280.25
466.78	5008.75
466.96	5078.96
467.14	5104.71
467.32	5008.75
467.51	5144.50
467.69	4924.49
467.87	5184.29
468.05	5085.98
468.23	5001.72
468.41	5050.88
468.60	5210.03
468.78	5252.16
468.96	5151.52
469.14	5184.29
469.32	5305.99
469.50	5181.95
469.69	5390.25
469.87	5355.15
470.05	5310.68
470.23	5198.33
470.41	5413.66
470.59	5413.66
470.77	5490.90
470.95	5549.41
471.14	5490.90
471.32	5474.51
471.50	5507.28
471.68	5650.05
471.86	5769.42
472.04	5619.63
472.22	5664.10
472.40	5771.76
472.58	5696.86
472.77	5781.12
472.95	5762.40
473.13	5912.19
473.31	5872.40
473.49	5916.87
473.67	5996.45
473.85	5909.85
474.03	5984.75
474.21	5947.30
474.39	5994.11
474.57	6012.84
474.75	5928.58
474.93	6108.80
475.12	6190.72
475.30	6120.50
475.48	6111.14
475.66	6260.93
475.84	6207.10
476.02	6221.14
476.20	6300.72
476.38	6466.90
476.56	6420.09
476.74	6806.28
476.92	6647.12
477.10	6544.14
477.28	6647.12
477.46	6715.00
477.64	6499.67
477.82	6813.30
478.00	6869.47
478.18	7028.63
478.36	6796.92
478.54	7014.59
478.72	7070.76
478.90	7138.63
479.08	7274.38
479.26	7368.01
479.44	7360.98
479.62	7272.04
479.80	7410.14
479.98	7400.77
480.16	7562.27
480.34	7557.59
480.52	7929.74
480.70	7639.51
480.88	7536.52
481.06	7576.31
481.24	7660.57
481.41	7960.16
481.59	8013.99
481.77	7878.24
481.95	7901.65
482.13	8072.51
482.31	8060.80
482.49	8159.11
482.67	8259.75
482.85	8198.90
483.03	8482.10
483.21	8510.19
483.39	8622.53
483.57	8559.34
483.74	8734.88
483.92	8877.65
484.10	8594.45
484.28	8748.92
484.46	9184.26
484.64	9156.18
484.82	8980.64
485.00	9004.04
485.18	9359.80
485.35	9439.38
485.53	9226.39
485.71	9441.72
485.89	9488.53
486.07	9556.41
486.25	9516.62
486.43	9778.76
486.61	9996.43
486.78	9863.02
486.96	10038.56
487.14	9886.42
487.32	10157.92
487.50	10099.41
487.68	10448.15
487.85	10560.50
488.03	10328.78
488.21	10537.09
488.39	10583.90
488.57	10717.31
488.75	10579.22
488.92	10939.66
489.10	10876.47
489.28	11063.71
489.46	11159.67
489.64	11049.67
489.81	11208.83
489.99	11358.62
490.17	11262.66
490.35	11419.47
490.53	11590.33
490.70	11754.17
490.88	11520.12
491.06	11903.96
491.24	11887.58
491.41	11833.75
491.59	11693.32
491.77	11819.71
491.95	12184.83
492.13	12121.63
492.30	12294.83
492.48	11976.52
492.66	12175.47
492.84	12285.47
493.01	12685.70
493.19	12437.61
493.37	12496.12
493.54	12807.41
493.72	12739.54
493.90	12807.41
494.08	13107.00
494.25	13144.45
494.43	13228.71
494.61	13247.43
494.79	13233.39
494.96	13202.96
495.14	13160.83
495.32	13635.96
495.49	13532.98
495.67	13799.80
495.85	13706.18
496.02	13867.67
496.20	13722.56
496.38	13912.14
496.55	13816.18
496.73	14258.54
496.91	14349.82
497.09	14303.01
497.26	14218.75
497.44	14190.67
497.62	14237.48
497.79	14597.92
497.97	14534.73
498.14	14670.48
498.32	14949.00
498.50	14913.89
498.67	14984.11
498.85	14710.27
499.03	15019.22
499.20	14960.70
499.38	15183.06
499.56	15187.74
499.73	15353.91
499.91	15295.40
500.08	15459.24
500.26	15536.48
500.44	15374.98
500.61	15522.43
500.79	15260.29
500.97	15833.72
501.14	15889.90
501.32	15857.13
501.49	15789.25
501.67	15889.90
501.84	15826.70
502.02	15829.04
502.20	16259.70
502.37	16126.29
502.55	16042.03
502.72	16404.81
502.90	16095.86
503.07	16287.79
503.25	16184.80
503.43	16280.77
503.60	16484.39
503.78	17006.33
503.95	16563.97
504.13	16596.74
504.30	16858.88
504.48	16650.57
504.65	16744.19
504.83	16718.45
505.01	17205.28
505.18	17029.74
505.36	17085.91
505.53	17041.44
505.71	17186.55
505.88	16947.82
506.06	16978.25
506.23	17254.43
506.41	17422.95
506.58	17331.67
506.76	17209.96
506.93	17429.97
507.11	17322.30
507.28	17752.96
507.46	17254.43
507.63	17710.83
507.81	17703.81
507.98	17708.49
508.16	17881.69
508.33	17446.35
508.50	17963.61
508.68	18054.89
508.85	18218.73
509.03	18064.25
509.20	18129.79
509.38	18541.72
509.55	18438.74
509.73	18396.61
509.90	18237.45
510.08	18398.95
510.25	18387.25
510.42	18408.31
510.60	18354.48
510.77	18628.32
510.95	18967.70
511.12	18731.31
511.30	18630.66
511.47	18754.71
511.64	18700.88
511.82	18890.46
511.99	19124.52
512.17	19201.76
512.34	19063.66
512.51	18864.72
512.69	19220.48
512.86	19307.08
513.04	19562.20
513.21	19332.82
513.38	19543.47
513.56	19477.94
513.73	19159.63
513.90	19744.76
514.08	19515.39
514.25	19578.58
514.43	19669.86
514.60	19681.56
514.77	19585.60
514.95	19829.02
515.12	19625.39
515.29	19749.44
515.47	20084.14
515.64	20219.89
515.81	20144.99
515.99	20189.46
516.16	20173.08
516.33	20016.26
516.51	20231.59
516.68	20393.09
516.85	20156.69
517.03	20374.36
517.20	20664.59
517.37	20659.91
517.54	20498.41
517.72	20844.81
517.89	20386.07
518.06	20416.49
518.24	20491.39
518.41	20790.98
518.58	20891.62
518.75	20643.52
518.93	21048.44
519.10	21025.03
519.27	21191.21
519.45	20971.20
519.62	21001.63
519.79	21177.17
519.96	20882.26
520.14	20952.48
520.31	21191.21
520.48	21008.65
520.65	21343.35
520.83	21397.18
521.00	21415.90
521.17	21479.10
521.34	21294.19
521.52	21678.04
521.69	21317.60
521.86	21755.28
522.03	21963.59
522.20	21411.22
522.38	21940.18
522.55	21535.27
522.72	21970.61
522.89	21441.65
523.07	21937.84
523.24	22204.66
523.41	22040.82
523.58	21905.07
523.75	22237.43
523.92	22153.17
524.10	22141.47
524.27	22429.35
524.44	22593.19
524.61	22754.69
524.78	22537.02
524.96	22424.67
525.13	22366.16
525.30	22604.89
525.47	22504.25
525.64	22614.26
525.81	22710.22
525.98	22838.95
526.16	22927.89
526.33	22817.88
526.50	22916.19
526.67	22848.31
526.84	22590.85
527.01	22771.07
527.18	22918.53
527.36	22867.03
527.53	22869.37
527.70	23428.76
527.87	23307.05
528.04	23278.97
528.21	23075.34
528.38	23250.88
528.55	23466.21
528.72	23047.26
528.89	23344.50
529.07	23517.70
529.24	23477.91
529.41	23681.54
529.58	23208.75
529.75	23028.53
529.92	23480.25
530.09	23513.02
530.26	23711.97
530.43	23800.91
530.60	23915.59
530.77	23608.98
530.94	23506.00
531.11	23733.03
531.28	23627.71
531.46	23917.93
531.63	23571.54
531.80	24285.40
531.97	24332.21
532.14	24046.66
532.31	24081.77
532.48	24102.84
532.65	24098.16
532.82	24105.18
532.99	23957.72
533.16	24128.58
533.33	24467.96
533.50	24430.51
533.67	24126.24
533.84	24687.97
534.01	24350.93
534.18	24379.02
534.35	24713.72
534.52	24376.68
534.69	24566.26
534.86	24858.83
535.03	24521.79
535.20	24552.22
535.37	24826.06
535.54	24718.40
535.71	24526.47
535.88	24802.66
536.05	24451.58
536.22	24767.55
536.38	24795.64
536.55	25017.99
536.72	25298.85
536.89	25062.46
537.06	24952.45
537.23	25076.50
537.40	24779.25
537.57	25039.05
537.74	24994.58
537.91	25397.15
538.08	25163.10
538.25	25233.32
538.42	25308.21
538.59	25282.47
538.75	25158.42
538.92	25535.24
539.09	25326.94
539.26	25596.10
539.43	25481.41
539.60	25502.48
539.77	25596.10
539.94	25455.67
540.11	25525.88
540.28	25685.04
540.44	25916.75
540.61	25333.96
540.78	25523.54
540.95	25666.31
541.12	25479.07
541.29	25844.20
541.46	25516.52
541.62	25771.64
541.79	25818.45
541.96	25551.63
542.13	25900.37
542.30	25841.85
542.47	26206.98
542.63	26120.38
542.80	26043.14
542.97	26326.35
543.14	26295.92
543.31	26546.36
543.48	26033.78
543.64	26665.72
543.81	26272.51
543.98	26497.20
544.15	26565.08
544.32	26471.46
544.48	26445.71
544.65	26668.06
544.82	26630.62
544.99	26316.98
545.16	26565.08
545.32	26764.03
545.49	26941.91
545.66	26700.83
545.83	26859.99
546.00	26902.12
546.16	26639.98
546.33	26408.26
546.50	26565.08
546.67	26813.18
546.83	26572.10
547.00	26925.52
547.17	26810.84
547.34	26845.94
547.50	26937.23
547.67	27253.20
547.84	27234.47
548.00	27182.98
548.17	27136.17
548.34	27103.40
548.51	27213.41
548.67	27358.52
548.84	27545.76
549.01	26911.48
549.18	27061.27
549.34	27023.83
549.51	26962.97
549.68	27084.68
549.84	27337.46
550.01	27374.91
550.18	27440.44
550.34	27531.72
550.51	27110.43
550.68	27419.38
550.84	27304.69
551.01	27498.95
551.18	27185.32
551.34	27204.05
551.51	27623.00
551.68	27541.08
551.84	27358.52
552.01	27070.64
552.18	27967.06
552.34	27730.67
552.51	27702.58
552.68	27674.49
552.84	28030.26
553.01	27915.57
553.18	27585.55
553.34	27917.91
553.51	27803.22
553.67	28020.89
553.84	28381.34
554.01	28004.51
554.17	27812.59
554.34	28067.70
554.51	27718.96
554.67	28336.87
554.84	27903.87
555.00	28130.90
555.17	28259.63
555.33	28430.49
555.50	28306.44
555.67	28119.20
555.83	28276.01
556.00	28273.67
556.16	28203.46
556.33	28091.11
556.50	28072.39
556.66	28547.51
556.83	28130.90
556.99	28369.63
557.16	28655.18
557.32	28362.61
557.49	28652.84
557.65	28500.70
557.82	28259.63
557.98	28416.44
558.15	28379.00
558.32	28631.77
558.48	28519.43
558.65	28507.72
558.81	28624.75
558.98	28816.68
559.14	28196.43
559.31	28636.45
559.47	28264.31
559.64	28313.46
559.80	28561.56
559.97	28912.64
560.13	28648.16
560.30	28938.38
560.46	28704.33
560.63	28903.28
560.79	28610.71
560.96	28547.51
561.12	28606.03
561.29	28524.11
561.45	28746.46
561.61	28524.11
561.78	28797.95
561.94	28833.06
562.11	28893.91
562.27	29142.01
562.44	28882.21
562.60	28748.80
562.77	28914.98
562.93	29034.35
563.10	28985.19
563.26	28900.94
563.42	29186.48
563.59	29317.55
563.75	29034.35
563.92	29294.14
564.08	28896.25
564.24	29113.92
564.41	28776.89
564.57	29200.52
564.74	29006.26
564.90	29081.16
565.07	29235.63
565.23	29326.91
565.39	29170.10
565.56	29453.30
565.72	29284.78
565.88	28936.04
566.05	28826.04
566.21	28690.29
566.38	29212.23
566.54	29092.86
566.70	29558.63
566.87	29212.23
567.03	29462.66
567.19	29617.14
567.36	29308.19
567.52	28994.56
567.68	29474.37
567.85	29050.73
568.01	29474.37
568.17	29415.85
568.34	29504.79
568.50	29076.48
568.66	29289.46
568.83	29310.53
568.99	29301.17
569.15	29567.99
569.32	29078.82
569.48	28973.49
569.64	29268.40
569.81	29057.75
569.97	29500.11
570.13	29376.06
570.30	29305.85
570.46	29394.79
570.62	29244.99
570.78	29591.39
570.95	29158.39
571.11	29350.32
571.27	29347.98
571.43	29125.63
571.60	29453.30
571.76	29640.54
571.92	29544.58
572.09	29666.29
572.25	29205.20
572.41	29163.08
572.57	29064.77
572.74	29504.79
572.90	29413.51
573.06	29741.19
573.22	29383.09
573.38	29699.06
573.55	29624.16
573.71	29893.32
573.87	29727.14
574.03	29926.09
574.20	29762.25
574.36	29462.66
574.52	29670.97
574.68	29570.33
574.84	29347.98
575.01	29364.36
575.17	29804.38
575.33	29940.13
575.49	29617.14
575.65	29720.12
575.82	29907.37
575.98	29385.43
576.14	29832.47
576.30	29895.66
576.46	29338.62
576.62	29504.79
576.79	29612.46
576.95	29500.11
577.11	29750.55
577.27	29666.29
577.43	29560.97
577.59	29717.78
577.75	29818.42
577.92	29284.78
578.08	29453.30
578.24	29500.11
578.40	29509.47
578.56	29497.77
578.72	29696.72
578.88	29734.17
579.04	29853.53
579.21	29893.32
579.37	29689.70
579.53	29851.19
579.69	29635.86
579.85	29488.41
580.01	29984.60
580.17	29535.22
580.33	29516.50
580.49	29685.01
580.65	30110.99
580.82	30085.25
580.98	29750.55
581.14	29944.81
581.30	30059.50
581.46	29961.20
581.62	29926.09
581.78	29551.60
581.94	29977.58
582.10	29928.43
582.26	29663.95
582.42	29907.37
582.58	29968.22
582.74	29881.62
582.90	30127.38
583.06	29862.90
583.22	29745.87
583.38	30050.14
583.54	29926.09
583.70	29612.46
583.86	29668.63
584.02	29729.48
584.18	29682.67
584.34	30000.99
584.50	29799.70
584.66	29600.76
584.82	29935.45
584.98	29912.05
585.14	29926.09
585.30	29668.63
585.46	29692.04
585.62	29745.87
585.78	29841.83
585.94	29734.17
586.10	30040.78
586.26	30003.33
586.42	29888.64
586.58	29963.54
586.74	29935.45
586.90	29596.07
587.06	29900.34
587.22	29881.62
587.38	30026.73
587.54	29937.79
587.70	30150.78
587.86	30366.11
588.02	29900.34
588.18	30284.19
588.34	29757.57
588.49	29816.08
588.65	29675.65
588.81	30008.01
588.97	29951.84
589.13	29813.74
589.29	29670.97
589.45	30085.25
589.61	30595.48
589.77	30359.09
589.93	30515.90
590.08	30204.61
590.24	30061.84
590.40	30403.56
590.56	30520.59
590.72	30176.53
590.88	30221.00
591.04	29858.21
591.20	30211.64
591.35	30150.78
591.51	30490.16
591.67	30562.72
591.83	30389.52
591.99	30443.35
592.15	30043.12
592.31	30396.54
592.46	30277.17
592.62	30436.33
592.78	30415.26
592.94	30199.93
593.10	29963.54
593.26	30471.43
593.41	30497.18
593.57	29825.45
593.73	30277.17
593.89	30155.46
594.05	30326.32
594.20	30333.34
594.36	30335.68
594.52	30314.62
594.68	30321.64
594.84	30251.42
594.99	30576.76
595.15	30356.75
595.31	30433.99
595.47	30345.05
595.62	30450.37
595.78	30171.85
595.94	30094.61
596.10	30696.13
596.25	30415.26
596.41	30038.44
596.57	30302.92
596.73	30326.32
596.88	29940.13
597.04	30679.74
597.20	31215.72
597.36	30499.52
597.51	30698.47
597.67	30274.83
597.83	30300.58
597.99	30579.10
598.14	30103.97
598.30	30176.53
598.46	30349.73
598.61	30267.81
598.77	30272.49
598.93	30635.27
599.09	30813.15
599.24	30661.02
599.40	30249.08
599.56	30424.62
599.71	30672.72
599.87	30967.63
600.03	30174.19
600.18	30120.35
600.34	30368.45
600.50	30314.62
600.65	30574.42
600.81	30733.57
600.97	30590.80
601.12	31161.89
601.28	30696.13
601.44	30515.90
601.59	30801.45
601.75	30132.06
601.91	30611.87
602.06	30452.71
602.22	30197.59
602.37	30415.26
602.53	30190.57
602.69	30370.79
602.84	30707.83
603.00	30492.50
603.16	30747.62
603.31	30724.21
603.47	30445.69
603.62	30602.50
603.78	30656.34
603.94	30354.41
604.09	30448.03
604.25	30391.86
604.40	30492.50
604.56	30412.92
604.71	30309.94
604.87	30298.23
605.03	30604.84
605.18	30497.18
605.34	30515.90
605.49	30209.29
605.65	30277.17
605.80	30209.29
605.96	30794.43
606.12	30518.25
606.27	30300.58
606.43	30242.06
606.58	30670.38
606.74	30677.40
606.89	30345.05
607.05	30665.70
607.20	30476.12
607.36	30775.70
607.51	30274.83
607.67	29909.71
607.82	30363.77
607.98	30609.53
608.13	29923.75
608.29	30249.08
608.44	30431.65
608.60	30576.76
608.75	30256.11
608.91	30178.87
609.06	30209.29
609.22	30209.29
609.37	30258.45
609.53	30136.74
609.68	30176.53
609.84	30118.01
609.99	29958.86
610.15	29991.62
610.30	30122.69
610.46	29820.77
610.61	30167.16
610.76	30284.19
610.92	30422.28
611.07	29841.83
611.23	29963.54
611.38	30113.33
611.54	29792.68
611.69	29778.64
611.84	29895.66
612.00	29633.52
612.15	29841.83
612.31	30602.50
612.46	30295.89
612.62	30546.33
612.77	30246.74
612.92	30331.00
613.08	29900.34
613.23	30333.34
613.39	29858.21
613.54	29710.76
613.69	29738.85
613.85	29935.45
614.00	29699.06
614.15	30391.86
614.31	29734.17
614.46	30075.88
614.62	30066.52
614.77	29752.89
614.92	29998.65
615.08	29858.21
615.23	29881.62
615.38	29783.32
615.54	29713.10
615.69	30015.03
615.84	29567.99
616.00	29825.45
616.15	29806.72
616.30	29518.84
616.46	29984.60
616.61	29614.80
616.76	30019.71
616.92	29443.94
617.07	29795.02
617.22	29792.68
617.37	29429.90
617.53	29661.61
617.68	29670.97
617.83	29408.83
617.99	29282.44
618.14	29394.79
618.29	29638.20
618.45	29509.47
618.60	29411.17
618.75	29542.24
618.90	29607.78
619.06	30085.25
619.21	29472.03
619.36	28992.22
619.51	29462.66
619.67	29064.77
619.82	29134.99
619.97	29352.66
620.12	28804.97
620.28	29172.44
620.43	29584.37
620.58	29317.55
620.73	29378.40
620.89	29560.97
621.04	29362.02
621.19	29263.72
621.34	29319.89
621.49	29120.95
621.65	29184.14
621.80	29188.82
621.95	29167.76
622.10	29575.01
622.25	28830.72
622.41	28826.04
622.56	29298.83
622.71	29266.06
622.86	29041.37
623.01	29336.27
623.16	28882.21
623.32	29165.42
623.47	29020.30
623.62	29277.76
623.77	28971.15
623.92	28711.35
624.07	28809.65
624.23	29015.62
624.38	28947.75
624.53	28645.82
624.68	29298.83
624.83	29010.94
624.98	28795.61
625.13	28975.83
625.29	29085.84
625.44	28985.19
625.59	29022.64
625.74	28542.83
625.89	28498.36
626.04	28620.07
626.19	28484.32
626.34	28615.39
626.49	28804.97
626.65	28840.08
626.80	28971.15
626.95	28601.35
627.10	28496.02
627.25	28318.14
627.40	28318.14
627.55	28355.59
627.70	28638.80
627.85	28254.95
628.00	28470.28
628.15	28247.93
628.30	27990.47
628.45	28388.36
628.60	28636.45
628.76	28137.92
628.91	28329.84
629.06	28397.72
629.21	28353.25
629.36	28252.61
629.51	28348.57
629.66	28142.60
629.81	27847.69
629.96	28063.02
630.11	28070.04
630.26	27920.25
630.41	28348.57
630.56	27805.56
630.71	28313.46
630.86	28093.45
631.01	28058.34
631.16	28496.02
631.31	28278.35
631.46	27934.29
631.61	28336.87
631.76	27899.19
631.91	27931.95
632.06	28224.52
632.21	27962.38
632.36	28030.26
632.51	27417.04
632.66	27740.03
632.81	28030.26
632.96	28091.11
633.10	27777.48
633.25	28095.79
633.40	27938.97
633.55	28030.26
633.70	27807.90
633.85	27693.22
634.00	27634.71
634.15	27714.28
634.30	27704.92
634.45	27695.56
634.60	27927.27
634.75	27658.11
634.90	27601.94
635.05	27850.03
635.19	27468.53
635.34	28025.57
635.49	27824.29
635.64	27859.40
635.79	27754.07
635.94	27381.93
636.09	27531.72
636.24	27468.53
636.39	27484.91
636.53	27529.38
636.68	27253.20
636.83	27517.68
636.98	27421.72
637.13	27644.07
637.28	27461.51
637.43	27461.51
637.57	27606.62
637.72	27353.84
637.87	27206.39
638.02	27288.31
638.17	27285.97
638.32	27117.45
638.46	27248.52
638.61	27159.58
638.76	27016.80
638.91	27330.44
639.06	27194.68
639.20	27285.97
639.35	27351.50
639.50	26834.24
639.65	27243.84
639.80	27330.44
639.94	27080.00
640.09	27283.62
640.24	27145.53
640.39	27082.34
640.54	26876.37
640.68	27234.47
640.83	27145.53
640.98	26665.72
641.13	26522.95
641.27	27061.27
641.42	26946.59
641.57	26670.40
641.72	26838.92
641.86	26616.57
642.01	26862.33
642.16	27005.10
642.31	26677.43
642.45	26892.76
642.60	26534.65
642.75	26614.23
642.90	26635.30
643.04	26803.82
643.19	26478.48
643.34	26295.92
643.48	26410.60
643.63	26813.18
643.78	26560.40
643.93	26682.11
644.07	26904.46
644.22	26965.31
644.37	26356.77
644.51	26728.92
644.66	26221.02
644.81	26394.22
644.95	26073.57
645.10	26286.56
645.25	26562.74
645.39	26494.86
645.54	26569.76
645.69	26321.66
645.83	26256.13
645.98	26288.90
646.13	26953.61
646.27	26419.97
646.42	26239.75
646.57	26434.01
646.71	26176.55
646.86	26181.23
647.00	26380.18
647.15	26106.34
647.30	26075.91
647.44	25839.51
647.59	26111.02
647.74	26443.37
647.88	26223.36
648.03	26424.65
648.17	26539.33
648.32	26309.96
648.47	26312.30
648.61	26125.06
648.76	26298.26
648.90	26347.41
649.05	25879.30
649.20	26059.52
649.34	25741.21
649.49	25965.90
649.63	25834.83
649.78	26232.72
649.92	25678.02
650.07	26108.68
650.21	25968.24
650.36	26036.12
650.51	25645.25
650.65	25998.67
650.80	25949.52
650.94	25832.49
651.09	25888.67
651.23	25720.15
651.38	26115.70
651.52	25504.82
651.67	25855.90
651.81	25998.67
651.96	25928.45
652.10	25965.90
652.25	25764.62
652.39	25928.45
652.54	25886.32
652.68	25771.64
652.83	25806.75
652.97	25855.90
653.12	25996.33
653.26	25497.80
653.41	25649.93
653.55	24975.86
653.70	25783.34
653.84	25790.36
653.99	25495.46
654.13	25511.84
654.27	25371.41
654.42	25333.96
654.56	25624.18
654.71	25549.29
654.85	25296.51
655.00	25659.29
655.14	25319.92
655.29	25448.64
655.43	25289.49
655.57	25474.39
655.72	24933.73
655.86	25343.32
656.01	25406.52
656.15	24989.90
656.30	25415.88
656.44	25383.11
656.58	25102.25
656.73	25399.49
656.87	25034.37
657.01	25247.36
657.16	25027.35
657.30	25266.08
657.45	25352.68
657.59	25380.77
657.73	25135.01
657.88	25167.78
658.02	25034.37
658.16	24727.76
658.31	24940.75
658.45	24954.79
658.60	24870.53
658.74	24739.46
658.88	25092.88
659.03	24917.34
659.17	24716.06
659.31	24863.51
659.46	24650.52
659.60	24739.46
659.74	24680.95
659.89	24819.04
660.03	24828.40
660.17	24687.97
660.32	24629.46
660.46	24451.58
660.60	24493.71
660.74	24493.71
660.89	24584.99
661.03	24444.56
661.17	24552.22
661.32	24650.52
661.46	24547.54
661.60	24538.18
661.74	24851.81
661.89	24545.20
662.03	24505.41
662.17	24320.51
662.31	24210.50
662.46	24369.66
662.60	24411.79
662.74	24126.24
662.88	24205.82
663.03	23906.23
663.17	23913.25
663.31	23681.54
663.45	23632.39
663.60	24137.94
663.74	23920.28
663.88	23903.89
664.02	23826.65
664.17	24355.61
664.31	23583.24
664.45	23854.74
664.59	23531.75
664.73	23807.93
664.88	23522.38
665.02	23204.07
665.16	23578.56
665.30	23515.36
665.44	23295.35
665.59	23449.83
665.73	23323.44
665.87	23295.35
666.01	23379.61
666.15	23641.75
666.29	23494.30
666.44	23016.83
666.58	23178.33
666.72	23211.09
666.86	23442.81
667.00	23321.10
667.14	22862.35
667.28	23005.13
667.43	22934.91
667.57	23168.96
667.71	22838.95
667.85	22899.80
667.99	22874.06
668.13	22724.26
668.27	23044.91
668.41	23084.70
668.56	22817.88
668.70	23044.91
668.84	23035.55
668.98	22775.75
669.12	22815.54
669.26	22642.34
669.40	22532.34
669.54	22452.76
669.68	22221.05
669.82	22279.56
669.96	22466.80
670.10	22574.47
670.25	22581.49
670.39	22363.82
670.53	22452.76
670.67	21984.65
670.81	22143.81
670.95	21994.01
671.09	22249.13
671.23	22089.98
671.37	21874.65
671.51	22441.06
671.65	22104.02
671.79	21891.03
671.93	21685.06
672.07	22216.36
672.21	21979.97
672.35	21860.60
672.49	21425.26
672.63	21504.84
672.77	21596.12
672.91	21876.99
673.05	21458.03
673.19	21483.78
673.33	21472.07
673.47	21549.31
673.61	21259.09
673.75	21640.59
673.89	21472.07
674.03	21582.08
674.17	21331.64
674.31	21067.16
674.45	21142.06
674.59	21270.79
674.73	21170.15
674.87	21348.03
675.01	21163.12
675.15	21099.93
675.29	21043.76
675.43	20947.79
675.56	21076.52
675.70	20807.36
675.84	20996.95
675.98	20425.86
676.12	20978.22
676.26	20882.26
676.40	20996.95
676.54	20549.90
676.68	20926.73
676.82	20189.46
676.96	20369.68
677.10	20430.54
677.23	20081.80
677.37	20297.13
677.51	20444.58
677.65	20231.59
677.79	19962.43
677.93	19885.19
678.07	19847.74
678.21	20065.41
678.34	19784.55
678.48	19758.80
678.62	19697.95
678.76	19644.12
678.90	19562.20
679.04	19463.90
679.18	19419.42
679.31	19096.43
679.45	19433.47
679.59	19154.94
679.73	19215.80
679.87	18986.43
680.00	18991.11
680.14	18895.14
680.28	19084.73
680.42	18806.20
680.56	19044.94
680.70	18899.83
680.83	18838.97
680.97	18855.36
681.11	18721.95
681.25	18717.26
681.39	18551.09
681.52	18743.01
681.66	18539.38
681.80	18494.91
681.94	18513.64
682.07	18127.45
682.21	18412.99
682.35	18286.61
682.49	18001.06
682.62	18050.21
682.76	18078.30
682.90	17982.34
683.04	17947.23
683.17	18204.69
683.31	18024.47
683.45	18068.94
683.59	17811.48
683.72	17813.82
683.86	17759.98
684.00	17682.75
684.13	17539.97
684.27	17699.13
684.41	17390.18
684.55	17242.73
684.68	17240.39
684.82	17177.19
684.96	17050.80
685.09	16851.86
685.23	17006.33
685.37	16910.37
685.50	16985.27
685.64	17109.32
685.78	17015.69
685.91	16973.56
686.05	17001.65
686.19	16673.98
686.32	16980.59
686.46	16540.57
686.60	16421.20
686.73	16800.37
686.87	16152.04
687.01	16411.84
687.14	16219.91
687.28	16189.49
687.42	16393.11
687.55	16189.49
687.69	16201.19
687.82	16182.46
687.96	16217.57
688.10	15964.79
688.23	16079.48
688.37	16187.14
688.50	15988.20
688.64	15679.25
688.78	15697.97
688.91	15648.82
689.05	15618.39
689.18	15782.23
689.32	15096.46
689.46	15407.75
689.59	15321.15
689.73	15602.01
689.86	15424.13
690.00	15218.16
690.13	15335.19
690.27	15108.16
690.41	15080.07
690.54	14963.04
690.68	15264.97
690.81	15091.77
690.95	14939.64
691.08	14934.96
691.22	14984.11
691.35	14834.32
691.49	14677.50
691.62	14590.90
691.76	14310.04
691.89	14654.09
692.03	14513.66
692.16	14354.51
692.30	14541.75
692.43	14335.78
692.57	14368.55
692.70	14263.22
692.84	14148.54
692.97	14183.65
693.11	13989.38
693.24	13905.12
693.38	14029.17
693.51	14097.05
693.65	13888.74
693.78	13837.25
693.92	13820.86
694.05	13589.15
694.19	13565.74
694.32	13479.15
694.45	13568.09
694.59	13348.08
694.72	13235.73
694.86	13380.84
694.99	13184.24
695.13	13214.66
695.26	13252.11
695.39	13158.49
695.53	13099.98
695.66	13184.24
695.80	13151.47
695.93	13149.13
696.07	13151.47
696.20	13163.17
696.33	12802.73
696.47	12835.50
696.60	12889.33
696.73	12472.71
696.87	12896.35
697.00	12395.48
697.14	12423.56
697.27	12376.75
697.40	12383.77
697.54	12241.00
697.67	12390.80
697.80	12217.60
697.94	12046.74
698.07	11983.54
698.21	11967.16
698.34	11915.67
698.47	11845.45
698.61	12168.45
698.74	12046.74
698.87	11995.25
699.01	11833.75
699.14	11772.89
699.27	11854.81
699.40	11819.71
699.54	11564.59
699.67	11625.44
699.80	11595.01
699.94	11346.92
700.07	11412.45
700.20	11094.14
700.34	11307.13
700.47	11269.68
700.60	11253.30
700.73	11515.44
700.87	11246.27
701.00	11199.46
701.13	11091.80
701.26	11122.23
701.40	11126.91
701.53	11293.08
701.66	10995.84
701.79	10747.74
701.93	10686.89
702.06	10628.37
702.19	10806.25
702.32	10761.78
702.46	10478.58
702.59	10422.41
702.72	10232.82
702.85	10539.43
702.99	10319.42
703.12	10457.51
703.25	10136.86
703.38	10384.96
703.51	10394.32
703.65	10338.15
703.78	10108.77
703.91	9989.41
704.04	10186.01
704.17	10181.33
704.31	10176.65
704.44	10139.20
704.57	9867.70
704.70	9947.28
704.83	9797.48
704.96	9790.46
705.10	9755.35
705.23	9621.94
>>>>>End Processed Spectral Data<<<<<
