SpectraSuite Data File
++++++++++++++++++++++++++++++++++++
Date: Fri Oct 18 13:58:22 GMT-05:00 2013
User: bianchi
Dark Spectrum Present: No
Reference Spectrum Present: No
Number of Sampled Component Spectra: 1
Spectrometers: USB2+H05261
Integration Time (usec): 50000 (USB2+H05261)
Spectra Averaged: 1 (USB2+H05261)
Boxcar Smoothing: 0 (USB2+H05261)
Correct for Electrical Dark: No (USB2+H05261)
Strobe/Lamp Enabled: No (USB2+H05261)
Correct for Detector Non-linearity: No (USB2+H05261)
Correct for Stray Light: No (USB2+H05261)
Number of Pixels in Processed Spectrum: 2048
>>>>>Begin Processed Spectral Data<<<<<
365.73	0.00
365.92	0.00
366.12	0.00
366.32	0.00
366.52	0.00
366.72	0.00
366.91	0.00
367.11	0.00
367.31	0.00
367.51	0.00
367.70	0.00
367.90	0.00
368.10	0.00
368.30	0.00
368.49	0.00
368.69	0.00
368.89	0.00
369.09	0.00
369.28	0.00
369.48	0.00
369.68	0.00
369.87	0.00
370.07	0.00
370.27	0.00
370.47	0.00
370.66	154.48
370.86	77.24
371.06	91.28
371.25	201.29
371.45	128.73
371.65	140.43
371.84	117.03
372.04	168.52
372.24	159.16
372.44	177.88
372.63	259.80
372.83	215.33
373.03	124.05
373.22	180.22
373.42	163.84
373.62	198.95
373.81	241.08
374.01	245.76
374.21	362.78
374.40	301.93
374.60	210.65
374.79	252.78
374.99	212.99
375.19	205.97
375.38	208.31
375.58	266.82
375.78	229.37
375.97	236.39
376.17	266.82
376.37	243.42
376.56	238.73
376.76	250.44
376.95	224.69
377.15	280.86
377.35	301.93
377.54	245.76
377.74	255.12
377.93	177.88
378.13	304.27
378.33	351.08
378.52	301.93
378.72	273.84
378.91	283.20
379.11	231.71
379.31	297.25
379.50	315.97
379.70	290.23
379.89	255.12
380.09	320.65
380.28	334.70
380.48	369.80
380.68	252.78
380.87	315.97
381.07	322.99
381.26	332.36
381.46	381.51
381.65	337.04
381.85	348.74
382.04	276.18
382.24	374.49
382.43	304.27
382.63	404.91
382.83	369.80
383.02	341.72
383.22	409.59
383.41	418.96
383.61	367.46
383.80	311.29
384.00	390.87
384.19	440.02
384.39	313.63
384.58	358.10
384.78	362.78
384.97	421.30
385.17	423.64
385.36	362.78
385.56	409.59
385.75	395.55
385.95	444.70
386.14	344.06
386.34	362.78
386.53	444.70
386.72	491.51
386.92	400.23
387.11	482.15
387.31	388.53
387.50	454.06
387.70	465.77
387.89	388.53
388.09	435.34
388.28	397.89
388.48	411.93
388.67	341.72
388.86	418.96
389.06	557.05
389.25	489.17
389.45	430.66
389.64	418.96
389.84	479.81
390.03	437.68
390.22	454.06
390.42	500.87
390.61	433.00
390.81	435.34
391.00	564.07
391.19	498.53
391.39	477.47
391.58	578.11
391.78	524.28
391.97	531.30
392.16	547.69
392.36	498.53
392.55	510.24
392.75	564.07
392.94	475.13
393.13	510.24
393.33	531.30
393.52	561.73
393.71	606.20
393.91	500.87
394.10	550.03
394.29	561.73
394.49	573.43
394.68	606.20
394.88	613.22
395.07	535.98
395.26	578.11
395.46	648.33
395.65	603.86
395.84	657.69
396.04	638.97
396.23	648.33
396.42	657.69
396.62	685.78
396.81	650.67
397.00	662.37
397.19	678.76
397.39	711.52
397.58	631.94
397.77	624.92
397.97	697.48
398.16	702.16
398.35	699.82
398.55	662.37
398.74	653.01
398.93	648.33
399.12	695.14
399.32	753.65
399.51	657.69
399.70	709.18
399.90	739.61
400.09	692.80
400.28	837.91
400.47	800.46
400.67	840.25
400.86	791.10
401.05	697.48
401.24	746.63
401.44	800.46
401.63	753.65
401.82	765.36
402.01	744.29
402.21	739.61
402.40	861.32
402.59	784.08
402.78	821.53
402.97	809.83
403.17	863.66
403.36	837.91
403.55	915.15
403.74	833.23
403.93	844.93
404.13	910.47
404.32	952.60
404.51	866.00
404.70	933.87
404.89	910.47
405.09	856.64
405.28	919.83
405.47	1062.60
405.66	912.81
405.85	964.30
406.05	994.73
406.24	971.32
406.43	987.71
406.62	997.07
406.81	1022.81
407.00	1020.47
407.20	1029.84
407.39	1069.62
407.58	1111.75
407.77	1100.05
407.96	1083.67
408.15	1090.69
408.34	1018.13
408.54	1032.18
408.73	1062.60
408.92	1088.35
409.11	1130.48
409.30	1170.27
409.49	1123.46
409.68	1095.37
409.87	1142.18
410.07	1240.48
410.26	1144.52
410.45	1083.67
410.64	1224.10
410.83	1254.53
411.02	1172.61
411.21	1160.91
411.40	1221.76
411.59	1203.04
411.78	1231.12
411.98	1156.22
412.17	1242.82
412.36	1254.53
412.55	1259.21
412.74	1245.16
412.93	1380.92
413.12	1327.08
413.31	1345.81
413.50	1425.39
413.69	1387.94
413.88	1434.75
414.07	1352.83
414.26	1507.30
414.45	1502.62
414.64	1521.35
414.83	1561.14
415.02	1404.32
415.22	1495.60
415.41	1603.27
415.60	1472.20
415.79	1582.20
415.98	1633.69
416.17	1582.20
416.36	1542.41
416.55	1556.46
416.74	1547.09
416.93	1736.68
417.12	1607.95
417.31	1579.86
417.50	1584.54
417.69	1783.49
417.88	1586.88
418.07	1610.29
418.26	1781.15
418.45	1790.51
418.64	1874.77
418.83	1788.17
419.02	1832.64
419.21	1816.26
419.39	1820.94
419.58	1865.41
419.77	1788.17
419.96	1865.41
420.15	1914.56
420.34	1671.14
420.53	1823.28
420.72	1891.15
420.91	1930.94
421.10	1916.90
421.29	2010.52
421.48	1891.15
421.67	1961.37
421.86	1991.80
422.05	2022.22
422.24	1888.81
422.43	1916.90
422.61	1935.62
422.80	1961.37
422.99	1977.75
423.18	1907.54
423.37	1928.60
423.56	2080.74
423.75	1991.80
423.94	1797.53
424.13	1764.76
424.32	1900.52
424.50	1956.69
424.69	2157.97
424.88	2104.14
425.07	2066.69
425.26	1937.96
425.45	1933.28
425.64	2024.56
425.83	1928.60
426.01	2050.31
426.20	1902.86
426.39	2024.56
426.58	2040.95
426.77	2043.29
426.96	2038.61
427.15	2090.10
427.33	2155.63
427.52	2050.31
427.71	2101.80
427.90	2221.17
428.09	2181.38
428.28	2146.27
428.46	2186.06
428.65	2195.42
428.84	2134.57
429.03	2228.19
429.22	2073.71
429.40	2207.13
429.59	2277.34
429.78	2099.46
429.97	2188.40
430.16	2253.94
430.34	2132.23
430.53	2382.67
430.72	2370.96
430.91	2183.72
431.10	2176.70
431.28	2286.70
431.47	2340.54
431.66	2399.05
431.85	2279.68
432.03	2420.11
432.22	2445.86
432.41	2459.90
432.60	2443.52
432.79	2333.51
432.97	2546.50
433.16	2518.42
433.35	2445.86
433.54	2506.71
433.72	2399.05
433.91	2560.55
434.10	2382.67
434.28	2572.25
434.47	2518.42
434.66	2480.97
434.85	2380.32
435.03	2605.02
435.22	2534.80
435.41	2640.12
435.59	2626.08
435.78	2649.49
435.97	2696.30
436.16	2572.25
436.34	2637.78
436.53	2733.75
436.72	2733.75
436.90	2722.04
437.09	2768.85
437.28	2682.25
437.46	2775.88
437.65	2686.94
437.84	2731.41
438.02	2658.85
438.21	2820.35
438.40	2700.98
438.58	2878.86
438.77	2883.54
438.96	2916.31
439.14	2871.84
439.33	2967.80
439.52	3014.61
439.70	2895.24
439.89	2944.39
440.08	3091.85
440.26	3045.04
440.45	3068.44
440.63	3122.27
440.82	3187.81
441.01	3045.04
441.19	3000.57
441.38	3131.64
441.57	3243.98
441.75	3143.34
441.94	3227.60
442.12	3243.98
442.31	3274.41
442.50	3260.37
442.68	3260.37
442.87	3337.60
443.05	3260.37
443.24	3419.52
443.43	3405.48
443.61	3384.41
443.80	3541.23
443.98	3382.07
444.17	3152.70
444.35	3281.43
444.54	3412.50
444.73	3417.18
444.91	3396.12
445.10	3351.65
445.28	3405.48
445.47	3389.10
445.65	3435.91
445.84	3358.67
446.02	3332.92
446.21	3400.80
446.39	3503.78
446.58	3501.44
446.77	3705.07
446.95	3419.52
447.14	3538.89
447.32	3571.66
447.51	3410.16
447.69	3548.25
447.88	3510.80
448.06	3520.17
448.25	3557.61
448.43	3447.61
448.62	3456.97
448.80	3592.72
448.99	3482.72
449.17	3513.14
449.36	3527.19
449.54	3742.52
449.73	3630.17
449.91	3536.55
450.10	3674.64
450.28	3578.68
450.46	3712.09
450.65	3735.50
450.83	3660.60
451.02	3641.87
451.20	3742.52
451.39	3775.28
451.57	3786.99
451.76	3613.79
451.94	3808.05
452.13	3840.82
452.31	3770.60
452.49	3775.28
452.68	3815.07
452.86	3887.63
453.05	3927.42
453.23	4042.11
453.42	3822.09
453.60	3875.93
453.78	3927.42
453.97	3892.31
454.15	3967.21
454.34	3929.76
454.52	3971.89
454.70	3943.80
454.89	3887.63
455.07	4126.36
455.26	4014.02
455.44	4081.89
455.62	4021.04
455.81	3997.64
455.99	4081.89
456.17	4098.28
456.36	4018.70
456.54	4128.70
456.73	4100.62
456.91	4301.90
457.09	4276.16
457.28	4390.84
457.46	4252.75
457.64	4280.84
457.83	4243.39
458.01	4234.03
458.19	4248.07
458.38	4241.05
458.56	4449.36
458.74	4325.31
458.93	4325.31
459.11	4447.02
459.29	4477.44
459.48	4519.57
459.66	4486.81
459.84	4444.68
460.03	4573.41
460.21	4538.30
460.39	4514.89
460.57	4468.08
460.76	4552.34
460.94	4559.36
461.12	4542.98
461.31	4667.03
461.49	4468.08
461.67	4540.64
461.85	4718.52
462.04	4559.36
462.22	4692.77
462.40	4599.15
462.59	4807.46
462.77	4709.16
462.95	4596.81
463.13	4711.50
463.32	4713.84
463.50	4774.69
463.68	4791.08
463.86	4894.06
464.05	4758.31
464.23	4734.90
464.41	4812.14
464.59	4858.95
464.78	4929.17
464.96	4840.23
465.14	4758.31
465.32	4873.00
465.50	4975.98
465.69	5011.09
465.87	4870.65
466.05	4828.53
466.23	4898.74
466.41	5095.35
466.60	5071.94
466.78	5046.20
466.96	4926.83
467.14	5034.49
467.32	5139.82
467.51	5071.94
467.69	5146.84
467.87	5163.22
468.05	5107.05
468.23	5069.60
468.41	5081.30
468.60	5067.26
468.78	5238.12
468.96	5064.92
469.14	5132.79
469.32	5298.97
469.50	5167.90
469.69	5219.39
469.87	5376.21
470.05	5554.09
470.23	5270.89
470.41	5352.81
470.59	5448.77
470.77	5486.22
470.95	5420.68
471.14	5324.72
471.32	5373.87
471.50	5612.60
471.68	5593.88
471.86	5549.41
472.04	5514.30
472.22	5813.89
472.40	5621.97
472.58	5624.31
472.77	5748.36
472.95	5713.25
473.13	5839.64
473.31	5799.85
473.49	5696.86
473.67	5816.23
473.85	5675.80
474.03	6122.84
474.21	5902.83
474.39	6064.33
474.57	6080.71
474.75	6085.39
474.93	6085.39
475.12	6214.12
475.30	6272.64
475.48	6080.71
475.66	6211.78
475.84	6127.52
476.02	6282.00
476.20	6251.57
476.38	6389.66
476.56	6619.04
476.74	6490.31
476.92	6373.28
477.10	6452.86
477.28	6693.93
477.46	6623.72
477.64	6633.08
477.82	6668.19
478.00	6764.15
478.18	6853.09
478.36	6892.88
478.54	7089.48
478.72	6979.48
478.90	7021.61
479.08	7169.06
479.26	7269.70
479.44	7056.72
479.62	7344.60
479.80	7391.41
479.98	7311.83
480.16	7370.35
480.34	7339.92
480.52	7515.46
480.70	7770.58
480.88	7494.40
481.06	7719.09
481.24	7463.97
481.41	7651.21
481.59	7864.20
481.77	7889.95
481.95	7988.25
482.13	8088.89
482.31	8028.04
482.49	7999.95
482.67	8308.90
482.85	8070.17
483.03	8404.86
483.21	8538.27
483.39	8702.11
483.57	8526.57
483.74	8559.34
483.92	8643.60
484.10	8638.92
484.28	8711.47
484.46	8819.14
484.64	8994.68
484.82	8856.59
485.00	8971.27
485.18	9284.91
485.35	9266.18
485.53	9369.16
485.71	9504.92
485.89	9406.61
486.07	9497.89
486.25	9378.53
486.43	9392.57
486.61	9664.07
486.78	9825.57
486.96	10076.01
487.14	9956.64
487.32	9851.31
487.50	9996.43
487.68	10286.65
487.85	10429.43
488.03	10326.44
488.21	10424.75
488.39	10565.18
488.57	10626.03
488.75	10792.21
488.92	10792.21
489.10	10752.42
489.28	10684.55
489.46	10965.41
489.64	10899.87
489.81	11094.14
489.99	11206.48
490.17	11276.70
490.35	11480.33
490.53	11337.56
490.70	11410.11
490.88	11227.55
491.06	11592.67
491.24	11747.15
491.41	11625.44
491.59	11892.26
491.77	11772.89
491.95	12016.31
492.13	12053.76
492.30	12198.87
492.48	12149.72
492.66	12257.39
492.84	11997.59
493.01	12468.03
493.19	12379.09
493.37	12587.40
493.54	12872.95
493.72	12807.41
493.90	12695.07
494.08	12912.74
494.25	13228.71
494.43	13170.19
494.61	13102.32
494.79	13128.06
494.96	13247.43
495.14	13434.68
495.32	13500.21
495.49	13301.26
495.67	13420.63
495.85	13724.90
496.02	13830.23
496.20	13682.77
496.38	14008.11
496.55	13830.23
496.73	14071.30
496.91	13877.04
497.09	14150.88
497.26	14487.92
497.44	14153.22
497.62	14490.26
497.79	14469.19
497.97	14480.89
498.14	14565.15
498.32	14668.14
498.50	14785.16
498.67	14750.06
498.85	14855.38
499.03	14965.39
499.20	14923.26
499.38	14986.45
499.56	15047.30
499.73	15197.10
499.91	15180.71
500.08	15250.93
500.26	15192.42
500.44	15318.81
500.61	15330.51
500.79	15332.85
500.97	15489.67
501.14	15583.29
501.32	16018.63
501.49	15641.80
501.67	15389.02
501.84	15644.14
502.02	15648.82
502.20	15878.19
502.37	16105.23
502.55	16212.89
502.72	16039.69
502.90	16016.29
503.07	16072.46
503.25	16145.02
503.43	16152.04
503.60	16425.88
503.78	16346.30
503.95	16255.02
504.13	16210.55
504.30	16657.59
504.48	16271.40
504.65	16816.75
504.83	16943.14
505.01	16826.11
505.18	16709.08
505.36	16737.17
505.53	16910.37
505.71	16992.29
505.88	17092.93
506.06	16912.71
506.23	17142.08
506.41	17177.19
506.58	17275.49
506.76	17371.46
506.93	17235.70
507.11	17240.39
507.28	17497.84
507.46	17436.99
507.63	17757.64
507.81	17642.96
507.98	17532.95
508.16	17795.09
508.33	17619.55
508.50	17792.75
508.68	17682.75
508.85	17834.88
509.03	17944.89
509.20	18080.64
509.38	18370.86
509.55	18230.43
509.73	18405.97
509.90	18270.22
510.08	18097.02
510.25	18424.70
510.42	18272.56
510.60	18541.72
510.77	18546.40
510.95	18511.30
511.12	18609.60
511.30	18520.66
511.47	18888.12
511.64	18743.01
511.82	18745.35
511.99	18782.80
512.17	19044.94
512.34	19023.87
512.51	18789.82
512.69	18820.25
512.86	19145.58
513.04	19220.48
513.21	19117.50
513.38	19449.85
513.56	19178.35
513.73	19176.01
513.90	19274.31
514.08	19381.98
514.25	19452.19
514.43	19845.40
514.60	19412.40
514.77	19861.79
514.95	19779.87
515.12	19447.51
515.29	19449.85
515.47	19749.44
515.64	19676.88
515.81	20163.72
515.99	20088.82
516.16	20339.26
516.33	20166.06
516.51	20084.14
516.68	20210.53
516.85	19800.93
517.03	20240.95
517.20	20503.09
517.37	20149.67
517.54	20287.76
517.72	20414.15
517.89	20397.77
518.06	20542.88
518.24	20435.22
518.41	20126.27
518.58	20666.93
518.75	20360.32
518.93	20879.92
519.10	20886.94
519.27	20879.92
519.45	20624.80
519.62	20840.13
519.79	20549.90
519.96	21022.69
520.14	20980.56
520.31	20999.29
520.48	21216.96
520.65	20915.03
520.83	21308.24
521.00	21455.69
521.17	21177.17
521.34	21151.42
521.52	21563.36
521.69	21479.10
521.86	21799.75
522.03	21876.99
522.20	21673.36
522.38	21671.02
522.55	21490.80
522.72	21453.35
522.89	21593.78
523.07	21748.26
523.24	21708.47
523.41	22029.12
523.58	21584.42
523.75	21546.97
523.92	21860.60
524.10	22080.61
524.27	21982.31
524.44	21909.75
524.61	22452.76
524.78	22448.08
524.96	22139.13
525.13	22169.55
525.30	22462.12
525.47	22572.13
525.64	22497.23
525.81	22733.62
525.98	22490.21
526.16	22520.63
526.33	22796.82
526.50	22731.28
526.67	22455.10
526.84	22852.99
527.01	22375.52
527.18	23037.89
527.36	22752.35
527.53	23000.44
527.70	23438.12
527.87	23091.73
528.04	22874.06
528.21	23152.58
528.38	22799.16
528.55	22920.87
528.72	23239.18
528.89	23112.79
529.07	23035.55
529.24	23372.59
529.41	23461.53
529.58	23419.40
529.75	22998.10
529.92	23171.30
530.09	23297.69
530.26	23723.67
530.43	23379.61
530.60	23527.06
530.77	23587.92
530.94	23541.11
531.11	23667.50
531.28	23417.06
531.46	23723.67
531.63	23686.22
531.80	24081.77
531.97	23887.51
532.14	23997.51
532.31	23803.25
532.48	23742.39
532.65	24009.22
532.82	23779.84
532.99	23988.15
533.16	23920.28
533.33	23922.62
533.50	23976.45
533.67	24016.24
533.84	24348.59
534.01	24177.73
534.18	23866.44
534.35	24360.30
534.52	24102.84
534.69	24709.04
534.86	24339.23
535.03	24329.87
535.20	24393.06
535.37	24510.09
535.54	24737.12
535.71	24402.43
535.88	24442.21
536.05	24484.34
536.22	24704.35
536.38	24793.29
536.55	25020.33
536.72	24896.28
536.89	24732.44
537.06	24566.26
537.23	24826.06
537.40	24936.07
537.57	25083.52
537.74	25123.31
537.91	25450.99
538.08	25057.78
538.25	25083.52
538.42	24968.84
538.59	25593.76
538.75	24697.33
538.92	25282.47
539.09	25364.39
539.26	25226.29
539.43	25570.35
539.60	25193.53
539.77	25453.33
539.94	25710.78
540.11	25383.11
540.28	25465.03
540.44	25476.73
540.61	25266.08
540.78	25249.70
540.95	25720.15
541.12	25352.68
541.29	25535.24
541.46	25755.26
541.62	25373.75
541.79	25523.54
541.96	25633.55
542.13	25745.89
542.30	25422.90
542.47	25844.20
542.63	25682.70
542.80	25823.13
542.97	26045.48
543.14	26251.45
543.31	26188.25
543.48	25738.87
543.64	25860.58
543.81	26239.75
543.98	25989.31
544.15	26305.28
544.32	26258.47
544.48	26281.88
544.65	26518.27
544.82	26300.60
544.99	26190.59
545.16	26429.33
545.32	26321.66
545.49	26831.90
545.66	26864.67
545.83	26455.08
546.00	26754.66
546.16	26249.11
546.33	26370.82
546.50	26431.67
546.67	26529.97
546.83	26192.94
547.00	26361.45
547.17	26611.89
547.34	26663.38
547.50	26801.47
547.67	26717.22
547.84	26911.48
548.00	27101.06
548.17	27133.83
548.34	26867.01
548.51	27204.05
548.67	26869.35
548.84	26932.54
549.01	26642.32
549.18	27007.44
549.34	26813.18
549.51	26951.27
549.68	26855.31
549.84	27103.40
550.01	27068.30
550.18	26946.59
550.34	27087.02
550.51	27494.27
550.68	27388.95
550.84	26738.28
551.01	27300.01
551.18	27154.90
551.34	27159.58
551.51	27332.78
551.68	27325.75
551.84	27117.45
552.01	27517.68
552.18	27049.57
552.34	27379.59
552.51	27484.91
552.68	27421.72
552.84	27775.14
553.01	27491.93
553.18	27480.23
553.34	27737.69
553.51	27543.42
553.67	27690.88
553.84	28182.39
554.01	28041.96
554.17	27646.41
554.34	27910.89
554.51	27583.21
554.67	27737.69
554.84	27742.37
555.00	27850.03
555.17	27847.69
555.33	27924.93
555.50	27859.40
555.67	28027.92
555.83	27985.79
556.00	28196.43
556.16	27971.74
556.33	28158.99
556.50	27859.40
556.66	28386.02
556.83	28163.67
556.99	28219.84
557.16	28594.32
557.32	27971.74
557.49	28313.46
557.65	28009.19
557.82	27784.50
557.98	28098.13
558.15	27938.97
558.32	28261.97
558.48	28088.77
558.65	28163.67
558.81	28020.89
558.98	27969.40
559.14	28563.90
559.31	28395.38
559.47	28353.25
559.64	27985.79
559.80	28563.90
559.97	28521.77
560.13	28460.91
560.30	28404.74
560.46	28498.36
560.63	28154.30
560.79	28692.63
560.96	28439.85
561.12	28746.46
561.29	28341.55
561.45	28339.21
561.61	28804.97
561.78	28648.16
561.94	28589.64
562.11	28364.95
562.27	28620.07
562.44	28266.65
562.60	28510.07
562.77	28538.15
562.93	28596.67
563.10	28570.92
563.26	28540.49
563.42	28879.87
563.59	29027.32
563.75	28833.06
563.92	29113.92
564.08	28601.35
564.24	28889.23
564.41	28760.50
564.57	28737.10
564.74	28861.15
564.90	28793.27
565.07	29109.24
565.23	29069.45
565.39	28556.88
565.56	29212.23
565.72	28842.42
565.88	29240.31
566.05	28973.49
566.21	28847.10
566.38	28854.12
566.54	28996.90
566.70	28800.29
566.87	29170.10
567.03	29345.64
567.19	29181.80
567.36	29036.69
567.52	28959.45
567.68	28940.72
567.85	29074.13
568.01	29132.65
568.17	28952.43
568.34	28903.28
568.50	28889.23
568.66	29369.04
568.83	29127.97
568.99	29362.02
569.15	29097.54
569.32	28992.22
569.48	29134.99
569.64	29050.73
569.81	29111.58
569.97	29118.60
570.13	29149.03
570.30	29050.73
570.46	28945.41
570.62	29249.67
570.78	29219.25
570.95	29050.73
571.11	29294.14
571.27	28968.81
571.43	28936.04
571.60	29226.27
571.76	28795.61
571.92	29280.10
572.09	29537.56
572.25	29160.73
572.41	29544.58
572.57	29476.71
572.74	29027.32
572.90	28912.64
573.06	29219.25
573.22	29198.18
573.38	29298.83
573.55	29261.38
573.71	29549.26
573.87	29319.89
574.03	29544.58
574.20	29549.26
574.36	28919.66
574.52	29404.15
574.68	28819.02
574.84	29195.84
575.01	29476.71
575.17	29366.70
575.33	29516.50
575.49	29158.39
575.65	29247.33
575.82	29640.54
575.98	29261.38
576.14	29411.17
576.30	29647.57
576.46	29397.13
576.62	29329.25
576.79	29584.37
576.95	29298.83
577.11	29507.13
577.27	29713.10
577.43	29291.80
577.59	29261.38
577.75	29219.25
577.92	29387.77
578.08	29560.97
578.24	29193.50
578.40	29518.84
578.56	29565.65
578.72	29685.01
578.88	29626.50
579.04	29591.39
579.21	29708.42
579.37	29825.45
579.53	29497.77
579.69	29689.70
579.85	29418.19
580.01	29460.32
580.17	29380.74
580.33	29256.70
580.49	29373.72
580.65	29663.95
580.82	29874.60
580.98	29582.03
581.14	29750.55
581.30	29476.71
581.46	29553.94
581.62	29347.98
581.78	29401.81
581.94	29399.47
582.10	29385.43
582.26	29205.20
582.42	29345.64
582.58	29380.74
582.74	29474.37
582.90	29415.85
583.06	29888.64
583.22	29919.07
583.38	29663.95
583.54	29525.86
583.70	29490.75
583.86	29483.73
584.02	29263.72
584.18	29788.00
584.34	29757.57
584.50	29855.87
584.66	29905.02
584.82	29366.70
584.98	29397.13
585.14	29600.76
585.30	29514.16
585.46	29778.64
585.62	29450.96
585.78	29514.16
585.94	29677.99
586.10	30038.44
586.26	30071.20
586.42	29846.51
586.58	29750.55
586.74	29500.11
586.90	29589.05
587.06	29443.94
587.22	29846.51
587.38	29404.15
587.54	29972.90
587.70	30103.97
587.86	29832.47
588.02	29909.71
588.18	29827.79
588.34	30017.37
588.49	29603.10
588.65	29710.76
588.81	29689.70
588.97	29731.83
589.13	29713.10
589.29	29659.27
589.45	29909.71
589.61	30113.33
589.77	30331.00
589.93	30017.37
590.08	29986.94
590.24	29790.34
590.40	29919.07
590.56	30150.78
590.72	29895.66
590.88	30015.03
591.04	29855.87
591.20	30071.20
591.35	29977.58
591.51	30686.76
591.67	30096.95
591.83	30108.65
591.99	29876.94
592.15	30118.01
592.31	30183.55
592.46	30026.73
592.62	29935.45
592.78	29783.32
592.94	29687.36
593.10	29738.85
593.26	29996.31
593.41	29979.92
593.57	29928.43
593.73	29874.60
593.89	30024.39
594.05	30082.91
594.20	29750.55
594.36	30120.35
594.52	29949.50
594.68	29848.85
594.84	30015.03
594.99	29848.85
595.15	30005.67
595.31	30239.72
595.47	30476.12
595.62	30197.59
595.78	30298.23
595.94	29827.79
596.10	30368.45
596.25	30239.72
596.41	30092.27
596.57	29640.54
596.73	30122.69
596.88	29759.91
597.04	30010.35
597.20	30363.77
597.36	30370.79
597.51	30005.67
597.67	30204.61
597.83	30377.81
597.99	30031.41
598.14	29982.26
598.30	30253.76
598.46	30183.55
598.61	29977.58
598.77	29855.87
598.93	30419.94
599.09	30213.98
599.24	30581.44
599.40	30188.23
599.56	30384.83
599.71	30459.73
599.87	30181.21
600.03	30122.69
600.18	30230.36
600.34	30195.25
600.50	29701.40
600.65	30146.10
600.81	30546.33
600.97	30319.30
601.12	30705.49
601.28	30288.87
601.44	30202.27
601.59	30134.40
601.75	30543.99
601.91	30499.52
602.06	30129.72
602.22	30558.03
602.37	29820.77
602.53	30141.42
602.69	30157.80
602.84	30171.85
603.00	30661.02
603.16	30405.90
603.31	30307.60
603.47	30429.30
603.62	30206.95
603.78	30391.86
603.94	29869.92
604.09	30190.57
604.25	29996.31
604.40	29961.20
604.56	30359.09
604.71	30501.86
604.87	30235.04
605.03	30029.07
605.18	30256.11
605.34	30078.22
605.49	30417.60
605.65	30197.59
605.80	30237.38
605.96	30036.09
606.12	30246.74
606.27	30139.08
606.43	29572.67
606.58	30326.32
606.74	30319.30
606.89	29942.47
607.05	30382.49
607.20	30120.35
607.36	30101.63
607.51	30024.39
607.67	29825.45
607.82	30235.04
607.98	30061.84
608.13	30321.64
608.29	29923.75
608.44	30118.01
608.60	29743.53
608.75	30450.37
608.91	30092.27
609.06	29673.31
609.22	30265.47
609.37	29982.26
609.53	29493.09
609.68	30045.46
609.84	29731.83
609.99	29841.83
610.15	29680.33
610.30	29605.44
610.46	30087.59
610.61	30169.51
610.76	29954.18
610.92	30089.93
611.07	29706.08
611.23	29809.06
611.38	29682.67
611.54	29563.31
611.69	29640.54
611.84	29488.41
612.00	29972.90
612.15	29586.71
612.31	29816.08
612.46	29675.65
612.62	29750.55
612.77	29886.30
612.92	30359.09
613.08	29713.10
613.23	29799.70
613.39	29556.28
613.54	29266.06
613.69	29378.40
613.85	29558.63
614.00	29586.71
614.15	29851.19
614.31	29738.85
614.46	29600.76
614.62	29558.63
614.77	29790.34
614.92	29605.44
615.08	29373.72
615.23	29549.26
615.38	29769.27
615.54	29357.34
615.69	29560.97
615.84	29322.23
616.00	29195.84
616.15	29273.08
616.30	29453.30
616.46	29329.25
616.61	29570.33
616.76	29457.98
616.92	29298.83
617.07	29465.00
617.22	29092.86
617.37	29558.63
617.53	29266.06
617.68	28957.11
617.83	29366.70
617.99	29457.98
618.14	29177.12
618.29	29504.79
618.45	29055.41
618.60	29291.80
618.75	29280.10
618.90	28863.49
619.06	29244.99
619.21	29076.48
619.36	29102.22
619.51	28952.43
619.67	28957.11
619.82	28851.78
619.97	29230.95
620.12	29069.45
620.28	29078.82
620.43	29181.80
620.58	28989.88
620.73	29132.65
620.89	29345.64
621.04	29013.28
621.19	29142.01
621.34	28964.13
621.49	28664.54
621.65	28498.36
621.80	29216.91
621.95	28620.07
622.10	28786.25
622.25	28720.71
622.41	28833.06
622.56	29055.41
622.71	29046.05
622.86	28872.85
623.01	28650.50
623.16	29099.88
623.32	28793.27
623.47	28615.39
623.62	28758.16
623.77	28664.54
623.92	28549.85
624.07	28601.35
624.23	28606.03
624.38	28690.29
624.53	28716.03
624.68	28849.44
624.83	28577.94
624.98	29174.78
625.13	28531.13
625.29	28755.82
625.44	28247.93
625.59	28355.59
625.74	28489.00
625.89	28369.63
626.04	28381.34
626.19	28491.34
626.34	28119.20
626.49	28212.82
626.65	28402.40
626.80	28231.54
626.95	28126.22
627.10	28397.72
627.25	28027.92
627.40	28245.58
627.55	28442.19
627.70	27985.79
627.85	28095.79
628.00	27744.71
628.15	27957.70
628.30	28098.13
628.45	28320.48
628.60	27920.25
628.76	27985.79
628.91	28184.73
629.06	28210.48
629.21	27927.27
629.36	27882.80
629.51	28292.40
629.66	28273.67
629.81	27585.55
629.96	27786.84
630.11	27871.10
630.26	28009.19
630.41	27913.23
630.56	27711.94
630.71	28121.54
630.86	27637.05
631.01	27807.90
631.16	28184.73
631.31	28037.28
631.46	27740.03
631.61	27953.02
631.76	27850.03
631.91	27417.04
632.06	27896.85
632.21	27777.48
632.36	27962.38
632.51	27424.06
632.66	27630.02
632.81	27314.05
632.96	27630.02
633.10	27674.49
633.25	27686.20
633.40	27646.41
633.55	27819.61
633.70	27505.98
633.85	27470.87
634.00	27445.12
634.15	27225.11
634.30	27288.31
634.45	27402.99
634.60	27433.42
634.75	27395.97
634.90	27129.15
635.05	27630.02
635.19	27662.79
635.34	27386.61
635.49	27428.74
635.64	27866.42
635.79	27569.17
635.94	27271.92
636.09	26953.61
636.24	27264.90
636.39	26890.41
636.53	27552.79
636.68	26841.26
636.83	26911.48
636.98	27161.92
637.13	27124.47
637.28	27028.51
637.43	27185.32
637.57	27311.71
637.72	27028.51
637.87	27316.39
638.02	27592.58
638.17	26871.69
638.32	26888.07
638.46	27143.19
638.61	26806.16
638.76	26398.90
638.91	26988.72
639.06	27037.87
639.20	26792.11
639.35	26888.07
639.50	27028.51
639.65	26883.39
639.80	26892.76
639.94	26934.88
640.09	27070.64
640.24	27033.19
640.39	26867.01
640.54	26661.04
640.68	26565.08
640.83	26661.04
640.98	26316.98
641.13	26506.57
641.27	26726.58
641.42	26609.55
641.57	26616.57
641.72	26749.98
641.86	26534.65
642.01	26506.57
642.16	26658.70
642.31	26462.10
642.45	26483.16
642.60	26295.92
642.75	26316.98
642.90	26422.31
643.04	26022.08
643.19	26412.95
643.34	26441.03
643.48	26150.81
643.63	26354.43
643.78	26354.43
643.93	26426.99
644.07	26251.45
644.22	26148.46
644.37	26380.18
644.51	26574.44
644.66	26431.67
644.81	26073.57
644.95	26005.69
645.10	26181.23
645.25	26012.71
645.39	25944.84
645.54	26169.53
645.69	26096.97
645.83	26267.83
645.98	26438.69
646.13	26499.55
646.27	26066.55
646.42	26031.44
646.57	26202.30
646.71	26237.41
646.86	26094.63
647.00	25811.43
647.15	25914.41
647.30	26108.68
647.44	25951.86
647.59	25900.37
647.74	25930.80
647.88	26038.46
648.03	25930.80
648.17	26118.04
648.32	25996.33
648.47	26045.48
648.61	26183.57
648.76	26106.34
648.90	25816.11
649.05	25689.72
649.20	25766.96
649.34	25750.57
649.49	25357.36
649.63	25635.89
649.78	25591.42
649.92	25481.41
650.07	25912.07
650.21	25654.61
650.36	25422.90
650.51	25951.86
650.65	25722.49
650.80	25645.25
650.94	25572.69
651.09	25486.09
651.23	25088.20
651.38	25577.37
651.52	25355.02
651.67	25434.60
651.81	25289.49
651.96	25467.37
652.10	25446.30
652.25	25598.44
652.39	25729.51
652.54	25919.09
652.68	25596.10
652.83	25446.30
652.97	26057.18
653.12	25544.61
653.26	25301.19
653.41	25383.11
653.55	25511.84
653.70	25076.50
653.84	25446.30
653.99	25092.88
654.13	24959.47
654.27	24781.59
654.42	25252.04
654.56	25570.35
654.71	25298.85
654.85	25032.03
655.00	25443.96
655.14	24975.86
655.29	25135.01
655.43	25502.48
655.57	24865.85
655.72	25062.46
655.86	24823.72
656.01	24940.75
656.15	24713.72
656.30	24924.36
656.44	25406.52
656.58	24851.81
656.73	24823.72
656.87	25025.01
657.01	25027.35
657.16	24718.40
657.30	24669.25
657.45	25156.08
657.59	24706.70
657.73	24547.54
657.88	24685.63
658.02	25397.15
658.16	24807.34
658.31	24467.96
658.45	24922.02
658.60	24393.06
658.74	24496.05
658.88	24269.01
659.03	24095.82
659.17	24716.06
659.31	24446.90
659.46	24386.04
659.60	24449.24
659.74	24685.63
659.89	24482.00
660.03	24332.21
660.17	24442.21
660.32	24126.24
660.46	24287.74
660.60	24156.67
660.74	23859.42
660.89	24315.83
661.03	23861.76
661.17	24210.50
661.32	23882.83
661.46	24198.80
661.60	24189.44
661.74	23988.15
661.89	24105.18
662.03	24201.14
662.17	24250.29
662.31	23857.08
662.46	24018.58
662.60	24056.03
662.74	24037.30
662.88	23594.94
663.03	23721.33
663.17	23910.91
663.31	23461.53
663.45	22939.59
663.60	23335.14
663.74	23798.57
663.88	23625.37
664.02	23707.29
664.17	23950.70
664.31	23660.48
664.45	23653.45
664.59	23538.77
664.73	23194.71
664.88	24011.56
665.02	23166.62
665.16	22757.03
665.30	23192.37
665.44	23346.84
665.59	23330.46
665.73	23222.80
665.87	23115.13
666.01	23360.89
666.15	23030.87
666.29	23058.96
666.44	23087.04
666.58	23133.86
666.72	22794.48
666.86	22906.82
667.00	23101.09
667.14	22534.68
667.28	22602.55
667.43	22995.76
667.57	22796.82
667.71	22707.88
667.85	22548.72
667.99	22480.85
668.13	22305.31
668.27	23096.41
668.41	22808.52
668.56	22235.09
668.70	22682.13
668.84	22443.40
668.98	22642.34
669.12	22588.51
669.26	22632.98
669.40	22113.38
669.54	22476.16
669.68	22359.14
669.82	22122.74
669.96	21881.67
670.10	22265.52
670.25	22066.57
670.39	21902.73
670.53	22022.10
670.67	21926.14
670.81	22148.49
670.95	22033.80
671.09	21921.46
671.23	22047.85
671.37	21593.78
671.51	22022.10
671.65	21893.37
671.79	21862.94
671.93	21266.11
672.07	21624.21
672.21	21738.90
672.35	21717.83
672.49	21270.79
672.63	21439.31
672.77	21336.32
672.91	21422.92
673.05	21432.29
673.19	21289.51
673.33	21549.31
673.47	21329.30
673.61	21656.98
673.75	21228.66
673.89	21261.43
674.03	21029.71
674.17	21216.96
674.31	21041.42
674.45	20987.58
674.59	20716.08
674.73	20744.17
674.87	20933.75
675.01	20919.71
675.15	20776.94
675.29	20814.38
675.43	20945.45
675.56	20814.38
675.70	20652.89
675.84	20493.73
675.98	20369.68
676.12	20592.03
676.26	20343.94
676.40	20589.69
676.54	20313.51
676.68	20273.72
676.82	19822.00
676.96	20013.92
677.10	20070.09
677.23	19924.98
677.37	19922.64
677.51	19866.47
677.65	19908.60
677.79	19751.78
677.93	19777.53
678.07	19601.99
678.21	19669.86
678.34	19583.26
678.48	19644.12
678.62	19241.54
678.76	19466.24
678.90	19227.50
679.04	19225.16
679.18	19428.79
679.31	19264.95
679.45	19239.20
679.59	18869.40
679.73	19129.20
679.87	19040.26
680.00	18476.19
680.14	18766.42
680.28	18604.92
680.42	18597.90
680.56	18930.25
680.70	18890.46
680.83	18579.17
680.97	18689.18
681.11	18799.18
681.25	18427.04
681.39	18492.57
681.52	18443.42
681.66	18267.88
681.80	18106.38
681.94	18183.62
682.07	18443.42
682.21	18134.47
682.35	17727.22
682.49	18024.47
682.62	17830.20
682.76	17788.07
682.90	17708.49
683.04	17649.98
683.17	17715.51
683.31	17532.95
683.45	17678.07
683.59	17542.32
683.72	17862.97
683.86	17422.95
684.00	17490.82
684.13	17486.14
684.27	17348.05
684.41	17235.70
684.55	17034.42
684.68	16802.71
684.82	16994.63
684.96	16875.26
685.09	16720.79
685.23	16638.87
685.37	16833.13
685.50	17039.10
685.64	17083.57
685.78	17053.14
685.91	17053.14
686.05	16952.50
686.19	16622.48
686.32	16807.39
686.46	16332.26
686.60	16388.43
686.73	16315.87
686.87	16554.61
687.01	16156.72
687.14	16161.40
687.28	16044.37
687.42	15831.38
687.55	15747.12
687.69	16252.68
687.82	15669.89
687.96	15889.90
688.10	15618.39
688.23	16056.08
688.37	15920.32
688.50	15882.88
688.64	15433.49
688.78	15683.93
688.91	15740.10
689.05	15541.16
689.18	15449.88
689.32	14984.11
689.46	15082.41
689.59	15143.27
689.73	15246.25
689.86	15119.86
690.00	15068.37
690.13	15316.47
690.27	14998.15
690.41	14953.68
690.54	15096.46
690.68	14946.66
690.81	14937.30
690.95	14778.14
691.08	14672.82
691.22	14855.38
691.35	14747.72
691.49	14499.62
691.62	14782.82
691.76	14279.61
691.89	14185.99
692.03	14265.57
692.16	14125.13
692.30	14167.26
692.43	14036.19
692.57	13977.68
692.70	13987.04
692.84	13762.35
692.97	14003.43
693.11	13956.61
693.24	14024.49
693.38	13809.16
693.51	13708.52
693.65	13528.30
693.78	13668.73
693.92	13682.77
694.05	13671.07
694.19	13439.36
694.32	13577.45
694.45	13238.07
694.59	13280.20
694.72	13092.96
694.86	13083.59
694.99	12959.55
695.13	13060.19
695.26	13029.76
695.39	12982.95
695.53	12999.34
695.66	12676.34
695.80	12891.67
695.93	12865.92
696.07	12940.82
696.20	12816.77
696.33	12339.30
696.47	12798.05
696.60	12840.18
696.73	12397.82
696.87	12571.02
697.00	12301.86
697.14	12201.21
697.27	12149.72
697.40	12100.57
697.54	12283.13
697.67	11847.79
697.80	11957.80
697.94	11997.59
698.07	11817.36
698.21	11838.43
698.34	12051.42
698.47	11927.37
698.61	11913.33
698.74	11747.15
698.87	12009.29
699.01	11726.08
699.14	11740.13
699.27	11730.76
699.40	11831.41
699.54	11431.18
699.67	11470.97
699.80	11222.87
699.94	11442.88
700.07	11325.85
700.20	11236.91
700.34	11164.36
700.47	11119.89
700.60	11119.89
700.73	11009.88
700.87	11176.06
701.00	10899.87
701.13	10890.51
701.26	11131.59
701.40	10729.02
701.53	10899.87
701.66	10740.72
701.79	10986.47
701.93	10686.89
702.06	10576.88
702.19	10644.76
702.32	10469.22
702.46	10380.28
702.59	10436.45
702.72	10118.14
702.85	10223.46
702.99	10429.43
703.12	10190.69
703.25	10150.90
703.38	10204.74
703.51	10092.39
703.65	10076.01
703.78	10181.33
703.91	9930.89
704.04	9970.68
704.17	10012.81
704.31	9975.36
704.44	9958.98
704.57	9687.48
704.70	9741.31
704.83	9703.86
704.96	9568.11
705.10	9621.94
705.23	9675.77
>>>>>End Processed Spectral Data<<<<<
