SpectraSuite Data File
++++++++++++++++++++++++++++++++++++
Date: Fri Oct 18 13:58:30 GMT-05:00 2013
User: bianchi
Dark Spectrum Present: No
Reference Spectrum Present: No
Number of Sampled Component Spectra: 1
Spectrometers: USB2+H05261
Integration Time (usec): 50000 (USB2+H05261)
Spectra Averaged: 1 (USB2+H05261)
Boxcar Smoothing: 0 (USB2+H05261)
Correct for Electrical Dark: No (USB2+H05261)
Strobe/Lamp Enabled: No (USB2+H05261)
Correct for Detector Non-linearity: No (USB2+H05261)
Correct for Stray Light: No (USB2+H05261)
Number of Pixels in Processed Spectrum: 2048
>>>>>Begin Processed Spectral Data<<<<<
365.73	0.00
365.92	0.00
366.12	0.00
366.32	0.00
366.52	0.00
366.72	0.00
366.91	0.00
367.11	0.00
367.31	0.00
367.51	0.00
367.70	0.00
367.90	0.00
368.10	0.00
368.30	0.00
368.49	0.00
368.69	0.00
368.89	0.00
369.09	0.00
369.28	0.00
369.48	0.00
369.68	0.00
369.87	0.00
370.07	0.00
370.27	0.00
370.47	0.00
370.66	63.19
370.86	98.30
371.06	159.16
371.25	205.97
371.45	84.26
371.65	175.54
371.84	98.30
372.04	161.50
372.24	191.92
372.44	138.09
372.63	222.35
372.83	210.65
373.03	234.05
373.22	166.18
373.42	163.84
373.62	182.56
373.81	227.03
374.01	203.63
374.21	248.10
374.40	208.31
374.60	280.86
374.79	220.01
374.99	271.50
375.19	259.80
375.38	334.70
375.58	287.89
375.78	255.12
375.97	271.50
376.17	259.80
376.37	222.35
376.56	297.25
376.76	269.16
376.95	238.73
377.15	271.50
377.35	315.97
377.54	276.18
377.74	290.23
377.93	248.10
378.13	327.68
378.33	278.52
378.52	290.23
378.72	229.37
378.91	266.82
379.11	294.91
379.31	248.10
379.50	264.48
379.70	297.25
379.89	325.33
380.09	290.23
380.28	351.08
380.48	330.02
380.68	273.84
380.87	376.83
381.07	299.59
381.26	327.68
381.46	330.02
381.65	322.99
381.85	348.74
382.04	367.46
382.24	381.51
382.43	315.97
382.63	297.25
382.83	285.55
383.02	374.49
383.22	379.17
383.41	334.70
383.61	362.78
383.80	421.30
384.00	351.08
384.19	355.76
384.39	304.27
384.58	339.38
384.78	351.08
384.97	353.42
385.17	358.10
385.36	294.91
385.56	414.27
385.75	311.29
385.95	367.46
386.14	353.42
386.34	313.63
386.53	346.40
386.72	334.70
386.92	376.83
387.11	379.17
387.31	416.62
387.50	346.40
387.70	435.34
387.89	365.12
388.09	397.89
388.28	402.57
388.48	416.62
388.67	491.51
388.86	458.74
389.06	423.64
389.25	500.87
389.45	440.02
389.64	496.19
389.84	493.85
390.03	514.92
390.22	482.15
390.42	514.92
390.61	430.66
390.81	430.66
391.00	444.70
391.19	470.45
391.39	428.32
391.58	414.27
391.78	517.26
391.97	493.85
392.16	528.96
392.36	533.64
392.55	552.37
392.75	500.87
392.94	580.45
393.13	533.64
393.33	491.51
393.52	610.88
393.71	547.69
393.91	573.43
394.10	528.96
394.29	519.60
394.49	552.37
394.68	585.13
394.88	554.71
395.07	620.24
395.26	531.30
395.46	664.71
395.65	608.54
395.84	568.75
396.04	645.99
396.23	641.31
396.42	643.65
396.62	653.01
396.81	631.94
397.00	634.29
397.19	674.07
397.39	718.54
397.58	653.01
397.77	678.76
397.97	669.39
398.16	727.91
398.35	671.73
398.55	624.92
398.74	681.10
398.93	669.39
399.12	634.29
399.32	739.61
399.51	676.41
399.70	788.76
399.90	692.80
400.09	737.27
400.28	777.06
400.47	727.91
400.67	777.06
400.86	727.91
401.05	692.80
401.24	802.80
401.44	814.51
401.63	767.70
401.82	727.91
402.01	774.72
402.21	851.96
402.40	856.64
402.59	856.64
402.78	819.19
402.97	863.66
403.17	882.38
403.36	887.06
403.55	866.00
403.74	866.00
403.93	849.61
404.13	856.64
404.32	875.36
404.51	851.96
404.70	894.08
404.89	905.79
405.09	997.07
405.28	968.98
405.47	903.45
405.66	983.02
405.85	915.15
406.05	896.43
406.24	999.41
406.43	976.00
406.62	943.24
406.81	1004.09
407.00	945.58
407.20	936.21
407.39	973.66
407.58	1020.47
407.77	980.68
407.96	1067.28
408.15	1043.88
408.34	1116.44
408.54	1062.60
408.73	1036.86
408.92	1071.97
409.11	1156.22
409.30	1163.25
409.49	1064.94
409.68	1153.88
409.87	1123.46
410.07	1188.99
410.26	1114.10
410.45	1114.10
410.64	1160.91
410.83	1149.20
411.02	1167.93
411.21	1219.42
411.40	1226.44
411.59	1167.93
411.78	1224.10
411.98	1177.29
412.17	1275.59
412.36	1315.38
412.55	1352.83
412.74	1261.55
412.93	1315.38
413.12	1266.23
413.31	1343.47
413.50	1380.92
413.69	1352.83
413.88	1394.96
414.07	1427.73
414.26	1528.37
414.45	1413.68
414.64	1413.68
414.83	1535.39
415.02	1427.73
415.22	1462.83
415.41	1423.05
415.60	1493.26
415.79	1530.71
415.98	1526.03
416.17	1455.81
416.36	1495.60
416.55	1657.10
416.74	1568.16
416.93	1638.38
417.12	1607.95
417.31	1689.87
417.50	1699.23
417.69	1729.66
417.88	1783.49
418.07	1708.59
418.26	1664.12
418.45	1708.59
418.64	1769.44
418.83	1743.70
419.02	1724.97
419.21	1710.93
419.39	1776.47
419.58	1797.53
419.77	1795.19
419.96	1884.13
420.15	1881.79
420.34	1846.68
420.53	1827.96
420.72	1802.21
420.91	1870.09
421.10	1914.56
421.29	2036.27
421.48	1802.21
421.67	1832.64
421.86	1832.64
422.05	1809.23
422.24	1989.46
422.43	1935.62
422.61	1977.75
422.80	1888.81
422.99	1968.39
423.18	1961.37
423.37	2047.97
423.56	1963.71
423.75	2005.84
423.94	2029.24
424.13	1844.34
424.32	1891.15
424.50	2010.52
424.69	2127.55
424.88	2080.74
425.07	2069.03
425.26	1952.01
425.45	1919.24
425.64	1984.77
425.83	2043.29
426.01	2010.52
426.20	2031.58
426.39	1942.64
426.58	2052.65
426.77	1980.09
426.96	2005.84
427.15	2043.29
427.33	2071.37
427.52	1963.71
427.71	1998.82
427.90	2132.23
428.09	2054.99
428.28	2052.65
428.46	2162.66
428.65	2134.57
428.84	2176.70
429.03	2230.53
429.22	2036.27
429.40	2190.74
429.59	2181.38
429.78	2080.74
429.97	2019.88
430.16	2160.31
430.34	2172.02
430.53	2307.77
430.72	2392.03
430.91	2190.74
431.10	2214.15
431.28	2338.20
431.47	2345.22
431.66	2401.39
431.85	2389.69
432.03	2387.35
432.22	2490.33
432.41	2373.30
432.60	2403.73
432.79	2406.07
432.97	2389.69
433.16	2340.54
433.35	2516.08
433.54	2326.49
433.72	2359.26
433.91	2410.75
434.10	2527.78
434.28	2448.20
434.47	2413.09
434.66	2574.59
434.85	2483.31
435.03	2464.58
435.22	2464.58
435.41	2527.78
435.59	2590.97
435.78	2693.96
435.97	2532.46
436.16	2635.44
436.34	2647.15
436.53	2609.70
436.72	2738.43
436.90	2614.38
437.09	2799.28
437.28	2495.01
437.46	2558.21
437.65	2644.81
437.84	2724.38
438.02	2689.28
438.21	2778.22
438.40	2665.87
438.58	2834.39
438.77	2818.00
438.96	2736.09
439.14	2916.31
439.33	2890.56
439.52	2944.39
439.70	3030.99
439.89	2909.29
440.08	2977.16
440.26	3014.61
440.45	3040.36
440.63	3000.57
440.82	3080.14
441.01	2909.29
441.19	3143.34
441.38	3094.19
441.57	3176.11
441.75	3150.36
441.94	3314.20
442.12	3155.04
442.31	3300.16
442.50	3194.83
442.68	3197.17
442.87	3183.13
443.05	3328.24
443.24	3375.05
443.43	3433.57
443.61	3302.50
443.80	3379.73
443.98	3218.24
444.17	3073.12
444.35	3337.60
444.54	3337.60
444.73	3412.50
444.91	3473.36
445.10	3349.31
445.28	3386.76
445.47	3379.73
445.65	3389.10
445.84	3459.31
446.02	3414.84
446.21	3442.93
446.39	3330.58
446.58	3449.95
446.77	3449.95
446.95	3258.03
447.14	3489.74
447.32	3471.01
447.51	3548.25
447.69	3531.87
447.88	3412.50
448.06	3398.46
448.25	3475.70
448.43	3569.32
448.62	3435.91
448.80	3557.61
448.99	3501.44
449.17	3445.27
449.36	3438.25
449.54	3613.79
449.73	3632.51
449.91	3592.72
450.10	3609.11
450.28	3588.04
450.46	3749.54
450.65	3693.37
450.83	3775.28
451.02	3728.47
451.20	3672.30
451.39	3772.94
451.57	3588.04
451.76	3653.58
451.94	3770.60
452.13	3775.28
452.31	3803.37
452.49	3777.62
452.68	3801.03
452.86	3892.31
453.05	3794.01
453.23	3920.40
453.42	3742.52
453.60	3798.69
453.78	3707.41
453.97	3791.67
454.15	3798.69
454.34	3866.56
454.52	3868.91
454.70	3971.89
454.89	3885.29
455.07	4025.72
455.26	3922.74
455.44	4063.17
455.62	3985.93
455.81	3911.04
455.99	4107.64
456.17	4114.66
456.36	4021.04
456.54	4117.00
456.73	4198.92
456.91	4320.63
457.09	4245.73
457.28	4306.59
457.46	4227.01
457.64	4327.65
457.83	4299.56
458.01	4177.86
458.19	4346.37
458.38	4425.95
458.56	4435.32
458.74	4341.69
458.93	4329.99
459.11	4397.87
459.29	4280.84
459.48	4390.84
459.66	4355.74
459.84	4432.97
460.03	4603.83
460.21	4468.08
460.39	4566.39
460.57	4322.97
460.76	4582.77
460.94	4650.64
461.12	4447.02
461.31	4512.55
461.49	4535.96
461.67	4575.75
461.85	4554.68
462.04	4538.30
462.22	4767.67
462.40	4676.39
462.59	4606.17
462.77	4610.86
462.95	4683.41
463.13	4695.11
463.32	4648.30
463.50	4812.14
463.68	4730.22
463.86	4784.06
464.05	4723.20
464.23	4741.93
464.41	4802.78
464.59	4685.75
464.78	4931.51
464.96	4798.10
465.14	4793.42
465.32	4858.95
465.50	5109.39
465.69	4894.06
465.87	5011.09
466.05	4905.76
466.23	4903.42
466.41	5006.41
466.60	5144.50
466.78	4816.82
466.96	4990.02
467.14	4816.82
467.32	4912.78
467.51	5046.20
467.69	4807.46
467.87	5083.64
468.05	5088.32
468.23	4924.49
468.41	5097.69
468.60	5032.15
468.78	5149.18
468.96	5069.60
469.14	5179.61
469.32	5266.21
469.50	5151.52
469.69	5254.50
469.87	5385.57
470.05	5303.65
470.23	5371.53
470.41	5273.23
470.59	5423.02
470.77	5158.54
470.95	5434.72
471.14	5408.98
471.32	5294.29
471.50	5603.24
471.68	5413.66
471.86	5593.88
472.04	5504.94
472.22	5579.84
472.40	5526.00
472.58	5724.95
472.77	5624.31
472.95	5619.63
473.13	5858.36
473.31	5565.79
473.49	5675.80
473.67	5767.08
473.85	5839.64
474.03	6001.13
474.21	5956.66
474.39	5860.70
474.57	6008.16
474.75	5928.58
474.93	5975.39
475.12	6024.54
475.30	6024.54
475.48	5980.07
475.66	6085.39
475.84	6043.26
476.02	6193.06
476.20	6235.19
476.38	6286.68
476.56	6483.28
476.74	6455.20
476.92	6455.20
477.10	6413.07
477.28	6707.98
477.46	6403.71
477.64	6551.16
477.82	6722.02
478.00	6829.68
478.18	6867.13
478.36	6874.15
478.54	6942.03
478.72	6972.46
478.90	6984.16
479.08	6925.65
479.26	7187.79
479.44	7145.66
479.62	7192.47
479.80	7346.94
479.98	7393.75
480.16	7232.26
480.34	7391.41
480.52	7564.61
480.70	7396.09
480.88	7386.73
481.06	7487.37
481.24	7494.40
481.41	7585.68
481.59	7716.75
481.77	7854.84
481.95	7936.76
482.13	8025.70
482.31	7878.24
482.49	8245.71
482.67	8170.81
482.85	8173.15
483.03	8215.28
483.21	8379.12
483.39	8308.90
483.57	8388.48
483.74	8456.36
483.92	8470.40
484.10	8407.20
484.28	8814.46
484.46	8901.06
484.64	8997.02
484.82	8781.69
485.00	8905.74
485.18	8968.93
485.35	9146.81
485.53	9057.87
485.71	9254.48
485.89	9369.16
486.07	9270.86
486.25	9444.06
486.43	9575.13
486.61	9547.05
486.78	9715.56
486.96	9870.04
487.14	9853.66
487.32	9764.72
487.50	10050.26
487.68	9977.70
487.85	10066.64
488.03	10319.42
488.21	10436.45
488.39	10186.01
488.57	10422.41
488.75	10403.68
488.92	10787.53
489.10	10738.38
489.28	10609.65
489.46	10977.11
489.64	10661.14
489.81	10965.41
489.99	11152.65
490.17	11119.89
490.35	10974.77
490.53	11084.78
490.70	11344.58
490.88	11253.30
491.06	11316.49
491.24	11276.70
491.41	11489.69
491.59	11564.59
491.77	11599.70
491.95	12156.74
492.13	12086.53
492.30	12013.97
492.48	11927.37
492.66	11967.16
492.84	12210.57
493.01	12299.52
493.19	12320.58
493.37	12271.43
493.54	12465.69
493.72	12428.24
493.90	12627.19
494.08	12685.70
494.25	13135.09
494.43	12622.51
494.61	12940.82
494.79	13057.85
494.96	12992.31
495.14	13284.88
495.32	13331.69
495.49	13186.58
495.67	13654.69
495.85	13385.52
496.02	13589.15
496.20	13640.64
496.38	13806.82
496.55	14003.43
496.73	13914.48
496.91	13888.74
497.09	13722.56
497.26	13947.25
497.44	13858.31
497.62	14052.58
497.79	13872.36
497.97	14207.05
498.14	14396.64
498.32	14464.51
498.50	14244.50
498.67	14757.08
498.85	14626.01
499.03	14661.12
499.20	14663.46
499.38	14473.87
499.56	14848.36
499.73	14857.72
499.91	14925.60
500.08	15080.07
500.26	15140.93
500.44	14874.10
500.61	15321.15
500.79	15276.68
500.97	15307.10
501.14	15426.47
501.32	15335.19
501.49	15365.62
501.67	15669.89
501.84	15466.26
502.02	15426.47
502.20	15400.72
502.37	15981.18
502.55	15815.00
502.72	15772.87
502.90	15674.57
503.07	15712.02
503.25	16182.46
503.43	15932.03
503.60	16226.93
503.78	16320.56
503.95	15955.43
504.13	16177.78
504.30	16358.00
504.48	16334.60
504.65	16620.14
504.83	16383.75
505.01	16535.88
505.18	16627.17
505.36	16627.17
505.53	16692.70
505.71	16835.47
505.88	16882.28
506.06	16655.25
506.23	16566.31
506.41	16664.61
506.58	17055.48
506.76	16826.11
506.93	17104.64
507.11	17226.34
507.28	17376.14
507.46	17336.35
507.63	17390.18
507.81	17252.09
507.98	17404.22
508.16	17572.74
508.33	17451.03
508.50	17493.16
508.68	17245.07
508.85	17635.94
509.03	17530.61
509.20	17767.01
509.38	18197.67
509.55	17956.59
509.73	17895.74
509.90	17942.55
510.08	17947.23
510.25	17947.23
510.42	18338.10
510.60	18153.20
510.77	18284.26
510.95	18375.55
511.12	18443.42
511.30	17942.55
511.47	18537.04
511.64	18377.89
511.82	18738.33
511.99	18665.77
512.17	18600.24
512.34	18618.96
512.51	18721.95
512.69	18838.97
512.86	18794.50
513.04	19136.22
513.21	19096.43
513.38	19054.30
513.56	19236.86
513.73	19271.97
513.90	18724.29
514.08	18967.70
514.25	19461.55
514.43	19089.41
514.60	19349.21
514.77	19262.61
514.95	19644.12
515.12	19264.95
515.29	19204.10
515.47	19697.95
515.64	19782.21
515.81	19510.71
515.99	19604.33
516.16	19857.10
516.33	19859.45
516.51	19800.93
516.68	19910.94
516.85	20077.12
517.03	19812.63
517.20	20180.10
517.37	20065.41
517.54	19936.68
517.72	20100.52
517.89	19992.86
518.06	20107.54
518.24	20383.73
518.41	20306.49
518.58	20095.84
518.75	20367.34
518.93	20592.03
519.10	20563.95
519.27	20332.23
519.45	20573.31
519.62	20601.40
519.79	20482.03
519.96	20365.00
520.14	20563.95
520.31	20758.21
520.48	20676.29
520.65	21064.82
520.83	20833.11
521.00	20723.10
521.17	20732.47
521.34	21135.04
521.52	21123.33
521.69	20924.39
521.86	21226.32
522.03	21252.06
522.20	21319.94
522.38	21401.86
522.55	21404.20
522.72	21233.34
522.89	21448.67
523.07	21610.17
523.24	21804.43
523.41	21876.99
523.58	21245.04
523.75	21743.58
523.92	21472.07
524.10	21783.37
524.27	21563.36
524.44	22005.72
524.61	21895.71
524.78	22141.47
524.96	22101.68
525.13	22211.68
525.30	22036.14
525.47	22164.87
525.64	21937.84
525.81	21830.18
525.98	22405.95
526.16	22148.49
526.33	22235.09
526.50	22160.19
526.67	22354.46
526.84	22129.77
527.01	22504.25
527.18	22326.37
527.36	22642.34
527.53	22761.71
527.70	22862.35
527.87	22948.95
528.04	22490.21
528.21	22948.95
528.38	22712.56
528.55	22885.76
528.72	22871.72
528.89	22967.68
529.07	23009.81
529.24	22611.92
529.41	23213.43
529.58	22890.44
529.75	22803.84
529.92	22972.36
530.09	22883.42
530.26	23234.50
530.43	23061.30
530.60	23077.68
530.77	23180.67
530.94	23398.34
531.11	23225.14
531.28	23051.94
531.46	23246.20
531.63	23667.50
531.80	23197.05
531.97	23651.11
532.14	23569.19
532.31	23386.63
532.48	23939.00
532.65	23405.36
532.82	23307.05
532.99	23697.92
533.16	23840.70
533.33	23634.73
533.50	23805.59
533.67	23941.34
533.84	23683.88
534.01	23552.81
534.18	23527.06
534.35	24037.30
534.52	23728.35
534.69	23828.99
534.86	24465.62
535.03	23875.80
535.20	24135.60
535.37	24271.36
535.54	24290.08
535.71	24163.69
535.88	24016.24
536.05	24196.46
536.22	24269.01
536.38	24493.71
536.55	24306.46
536.72	24397.74
536.89	24615.41
537.06	24376.68
537.23	24404.77
537.40	24486.68
537.57	24402.43
537.74	24545.20
537.91	24884.58
538.08	24788.61
538.25	24493.71
538.42	24877.55
538.59	24886.92
538.75	24711.38
538.92	24269.01
539.09	24905.64
539.26	24875.21
539.43	24980.54
539.60	24783.93
539.77	24783.93
539.94	24924.36
540.11	25006.28
540.28	24790.95
540.44	25252.04
540.61	24936.07
540.78	24863.51
540.95	25268.42
541.12	25188.85
541.29	25085.86
541.46	25139.69
541.62	25053.09
541.79	25062.46
541.96	25135.01
542.13	25469.71
542.30	25319.92
542.47	25979.95
542.63	25565.67
542.80	25963.56
542.97	25645.25
543.14	25841.85
543.31	25605.46
543.48	25518.86
543.64	25804.41
543.81	25975.27
543.98	25905.05
544.15	25963.56
544.32	25781.00
544.48	25837.17
544.65	25912.07
544.82	25867.60
544.99	25539.93
545.16	25982.29
545.32	25481.41
545.49	26108.68
545.66	26551.04
545.83	26108.68
546.00	26567.42
546.16	26214.00
546.33	25888.67
546.50	25764.62
546.67	26300.60
546.83	25703.76
547.00	25958.88
547.17	26192.94
547.34	26314.64
547.50	26270.17
547.67	26363.79
547.84	26188.25
548.00	26661.04
548.17	26415.29
548.34	26164.85
548.51	26923.18
548.67	26705.51
548.84	26359.11
549.01	26288.90
549.18	26841.26
549.34	26740.62
549.51	26752.32
549.68	26529.97
549.84	26398.90
550.01	26862.33
550.18	26384.86
550.34	26862.33
550.51	26988.72
550.68	27047.23
550.84	26581.46
551.01	27166.60
551.18	26635.30
551.34	26562.74
551.51	26817.86
551.68	26890.41
551.84	27175.96
552.01	26972.33
552.18	27019.14
552.34	26820.20
552.51	26962.97
552.68	27194.68
552.84	27084.68
553.01	27150.21
553.18	27023.83
553.34	27714.28
553.51	27178.30
553.67	27363.20
553.84	27358.52
554.01	27056.59
554.17	27805.56
554.34	27407.67
554.51	27274.26
554.67	27353.84
554.84	27269.58
555.00	27620.66
555.17	27587.89
555.33	27608.96
555.50	27545.76
555.67	27405.33
555.83	27335.12
556.00	27534.06
556.16	28175.37
556.33	27578.53
556.50	27601.94
556.66	27623.00
556.83	27372.57
556.99	28156.64
557.16	27887.48
557.32	27964.72
557.49	27517.68
557.65	27573.85
557.82	27580.87
557.98	27765.78
558.15	27449.80
558.32	27859.40
558.48	27871.10
558.65	27796.20
558.81	28102.81
558.98	28142.60
559.14	28154.30
559.31	27777.48
559.47	28158.99
559.64	27854.72
559.80	27913.23
559.97	27903.87
560.13	28039.62
560.30	28332.18
560.46	28208.14
560.63	28046.64
560.79	28067.70
560.96	27999.83
561.12	28135.58
561.29	27953.02
561.45	28297.08
561.61	28112.17
561.78	27681.52
561.94	28163.67
562.11	28133.24
562.27	28161.33
562.44	28355.59
562.60	28268.99
562.77	28217.50
562.93	28496.02
563.10	28318.14
563.26	28163.67
563.42	28624.75
563.59	28037.28
563.75	28116.86
563.92	28753.48
564.08	28285.37
564.24	28678.58
564.41	28498.36
564.57	28250.27
564.74	28481.98
564.90	28540.49
565.07	28243.24
565.23	28238.56
565.39	28666.88
565.56	28680.92
565.72	28137.92
565.88	28519.43
566.05	28390.70
566.21	28659.86
566.38	28547.51
566.54	28425.81
566.70	28704.33
566.87	28580.28
567.03	28360.27
567.19	28760.50
567.36	28350.91
567.52	28346.23
567.68	28769.86
567.85	28250.27
568.01	28685.61
568.17	28655.18
568.34	28753.48
568.50	28582.62
568.66	28472.62
568.83	28840.08
568.99	28526.45
569.15	28362.61
569.32	28842.42
569.48	28442.19
569.64	28697.31
569.81	28903.28
569.97	28631.77
570.13	28914.98
570.30	28545.17
570.46	28325.16
570.62	28723.05
570.78	28741.78
570.95	28573.26
571.11	28769.86
571.27	28346.23
571.43	28453.89
571.60	28765.18
571.76	28732.42
571.92	29240.31
572.09	28940.72
572.25	28804.97
572.41	28793.27
572.57	28809.65
572.74	28835.40
572.90	28809.65
573.06	28814.34
573.22	28840.08
573.38	28528.79
573.55	28844.76
573.71	29188.82
573.87	29200.52
574.03	28692.63
574.20	29106.90
574.36	28748.80
574.52	28734.76
574.68	28861.15
574.84	29165.42
575.01	28666.88
575.17	29158.39
575.33	28952.43
575.49	28769.86
575.65	29202.86
575.82	28961.79
575.98	28723.05
576.14	29088.18
576.30	29139.67
576.46	28922.00
576.62	28769.86
576.79	29151.37
576.95	29008.60
577.11	29200.52
577.27	29209.89
577.43	29207.55
577.59	28725.39
577.75	28755.82
577.92	28914.98
578.08	28851.78
578.24	28631.77
578.40	29123.29
578.56	28959.45
578.72	29195.84
578.88	28982.85
579.04	29205.20
579.21	29151.37
579.37	29118.60
579.53	29486.07
579.69	28893.91
579.85	29088.18
580.01	29081.16
580.17	28891.57
580.33	28680.92
580.49	29001.58
580.65	29039.03
580.82	29343.30
580.98	29329.25
581.14	29429.90
581.30	29355.00
581.46	29195.84
581.62	29116.26
581.78	29074.13
581.94	29237.97
582.10	28875.19
582.26	29390.11
582.42	29158.39
582.58	29338.62
582.74	29179.46
582.90	28994.56
583.06	29483.73
583.22	29064.77
583.38	29177.12
583.54	28947.75
583.70	29188.82
583.86	29223.93
584.02	28907.96
584.18	29179.46
584.34	29127.97
584.50	29369.04
584.66	29273.08
584.82	28816.68
584.98	29336.27
585.14	29301.17
585.30	28945.41
585.46	29102.22
585.62	29116.26
585.78	28996.90
585.94	28882.21
586.10	29076.48
586.26	29067.11
586.42	29521.18
586.58	29570.33
586.74	29263.72
586.90	28994.56
587.06	29254.36
587.22	28800.29
587.38	29034.35
587.54	29123.29
587.70	29612.46
587.86	29390.11
588.02	29071.79
588.18	29624.16
588.34	29331.59
588.49	29172.44
588.65	29113.92
588.81	29132.65
588.97	29195.84
589.13	29560.97
589.29	29024.98
589.45	29432.24
589.61	29575.01
589.77	29762.25
589.93	29549.26
590.08	29392.45
590.24	29600.76
590.40	29696.72
590.56	29626.50
590.72	29298.83
590.88	29502.45
591.04	29617.14
591.20	29797.36
591.35	29788.00
591.51	29715.44
591.67	29685.01
591.83	30087.59
591.99	29652.25
592.15	29731.83
592.31	29331.59
592.46	29406.49
592.62	29057.75
592.78	29181.80
592.94	29221.59
593.10	29455.64
593.26	29411.17
593.41	29516.50
593.57	29628.84
593.73	29465.00
593.89	29565.65
594.05	29778.64
594.20	29575.01
594.36	29413.51
594.52	29095.20
594.68	29486.07
594.84	29722.46
594.99	29715.44
595.15	29759.91
595.31	29830.13
595.47	29818.42
595.62	29968.22
595.78	29642.88
595.94	29582.03
596.10	29914.39
596.25	29773.95
596.41	29184.14
596.57	29488.41
596.73	29755.23
596.88	29369.04
597.04	29972.90
597.20	29972.90
597.36	29830.13
597.51	29757.57
597.67	29802.04
597.83	29390.11
597.99	29682.67
598.14	29823.11
598.30	29696.72
598.46	29654.59
598.61	29811.40
598.77	29333.93
598.93	29736.51
599.09	29598.41
599.24	30242.06
599.40	29649.91
599.56	29923.75
599.71	30015.03
599.87	29830.13
600.03	29722.46
600.18	29483.73
600.34	29703.74
600.50	29495.43
600.65	29394.79
600.81	29956.52
600.97	29895.66
601.12	29975.24
601.28	29970.56
601.44	29722.46
601.59	29825.45
601.75	29703.74
601.91	29596.07
602.06	29486.07
602.22	29949.50
602.37	29575.01
602.53	29380.74
602.69	29708.42
602.84	29675.65
603.00	29839.49
603.16	29404.15
603.31	29933.11
603.47	29729.48
603.62	30122.69
603.78	29848.85
603.94	29659.27
604.09	29633.52
604.25	29795.02
604.40	29928.43
604.56	29816.08
604.71	29710.76
604.87	29706.08
605.03	29818.42
605.18	29291.80
605.34	29680.33
605.49	30064.18
605.65	29565.65
605.80	29420.53
605.96	29692.04
606.12	29631.18
606.27	30139.08
606.43	29408.83
606.58	29776.30
606.74	29795.02
606.89	29858.21
607.05	30132.06
607.20	29736.51
607.36	29675.65
607.51	29532.88
607.67	29647.57
607.82	29408.83
607.98	29727.14
608.13	29586.71
608.29	29387.77
608.44	29867.58
608.60	29961.20
608.75	29937.79
608.91	30235.04
609.06	29401.81
609.22	29607.78
609.37	29497.77
609.53	29546.92
609.68	29280.10
609.84	29369.04
609.99	29188.82
610.15	29118.60
610.30	29448.62
610.46	29312.87
610.61	29558.63
610.76	29448.62
610.92	29715.44
611.07	29287.12
611.23	29223.93
611.38	29642.88
611.54	29050.73
611.69	29390.11
611.84	29053.07
612.00	29205.20
612.15	29074.13
612.31	29495.43
612.46	29230.95
612.62	29479.05
612.77	29575.01
612.92	29659.27
613.08	28999.24
613.23	29340.96
613.39	29308.19
613.54	28945.41
613.69	29219.25
613.85	29242.65
614.00	29345.64
614.15	29158.39
614.31	29003.92
614.46	29266.06
614.62	29406.49
614.77	28868.17
614.92	29081.16
615.08	28884.55
615.23	28982.85
615.38	29235.63
615.54	28526.45
615.69	28762.84
615.84	28877.53
616.00	28961.79
616.15	28884.55
616.30	29315.21
616.46	28884.55
616.61	29032.00
616.76	28884.55
616.92	28842.42
617.07	29160.73
617.22	28886.89
617.37	28830.72
617.53	28479.64
617.68	28669.22
617.83	28669.22
617.99	28599.01
618.14	28704.33
618.29	28608.37
618.45	28872.85
618.60	28554.54
618.75	28919.66
618.90	29020.30
619.06	28510.07
619.21	28978.17
619.36	28863.49
619.51	28535.81
619.67	28711.35
619.82	28584.96
619.97	28559.22
620.12	28381.34
620.28	27936.63
620.43	28774.55
620.58	28912.64
620.73	28891.57
620.89	28308.78
621.04	29015.62
621.19	28568.58
621.34	28847.10
621.49	28374.31
621.65	28442.19
621.80	28376.66
621.95	27847.69
622.10	28175.37
622.25	28044.30
622.41	28423.47
622.56	28360.27
622.71	28411.76
622.86	28367.29
623.01	28474.96
623.16	28226.86
623.32	28133.24
623.47	28086.43
623.62	28278.35
623.77	27824.29
623.92	28063.02
624.07	28063.02
624.23	28273.67
624.38	28659.86
624.53	28037.28
624.68	28180.05
624.83	28629.43
624.98	27922.59
625.13	27882.80
625.29	28409.42
625.44	27864.08
625.59	28290.06
625.74	27346.82
625.89	27997.49
626.04	27522.36
626.19	27587.89
626.34	27517.68
626.49	27700.24
626.65	27796.20
626.80	27777.48
626.95	28095.79
627.10	27754.07
627.25	28072.39
627.40	27833.65
627.55	27810.25
627.70	27672.15
627.85	27683.86
628.00	27793.86
628.15	27475.55
628.30	27445.12
628.45	27555.13
628.60	27796.20
628.76	27426.40
628.91	27494.27
629.06	27690.88
629.21	27747.05
629.36	27608.96
629.51	27510.66
629.66	27520.02
629.81	27428.74
629.96	27421.72
630.11	27246.18
630.26	27440.44
630.41	27892.16
630.56	27091.70
630.71	27545.76
630.86	27545.76
631.01	27400.65
631.16	27604.28
631.31	27295.33
631.46	27269.58
631.61	27625.34
631.76	27491.93
631.91	27101.06
632.06	27091.70
632.21	27164.26
632.36	27274.26
632.51	27009.78
632.66	26904.46
632.81	27096.38
632.96	27051.91
633.10	27381.93
633.25	27332.78
633.40	27351.50
633.55	27220.43
633.70	26855.31
633.85	26953.61
634.00	27225.11
634.15	26848.29
634.30	27026.17
634.45	26789.77
634.60	26939.57
634.75	27037.87
634.90	26906.80
635.05	27082.34
635.19	26782.75
635.34	27185.32
635.49	27201.71
635.64	26981.70
635.79	26930.20
635.94	26939.57
636.09	27190.00
636.24	26534.65
636.39	26906.80
636.53	26738.28
636.68	26342.73
636.83	26738.28
636.98	26778.07
637.13	26764.03
637.28	26850.63
637.43	26850.63
637.57	26525.29
637.72	26595.51
637.87	26277.19
638.02	26689.13
638.17	26389.54
638.32	26396.56
638.46	26721.90
638.61	26106.34
638.76	26204.64
638.91	26359.11
639.06	26581.46
639.20	26771.05
639.35	26377.84
639.50	26647.00
639.65	26445.71
639.80	26913.82
639.94	26143.78
640.09	26544.02
640.24	26508.91
640.39	26338.05
640.54	26061.87
640.68	26286.56
640.83	25736.53
640.98	26005.69
641.13	26036.12
641.27	26111.02
641.42	26047.82
641.57	26040.80
641.72	26230.38
641.86	26181.23
642.01	25989.31
642.16	25951.86
642.31	25951.86
642.45	25986.97
642.60	25951.86
642.75	25549.29
642.90	26085.27
643.04	25951.86
643.19	25923.77
643.34	26059.52
643.48	26010.37
643.63	26265.49
643.78	25951.86
643.93	25930.80
644.07	25977.61
644.22	25626.53
644.37	26066.55
644.51	25668.66
644.66	25612.48
644.81	25963.56
644.95	25722.49
645.10	25834.83
645.25	26239.75
645.39	25703.76
645.54	25912.07
645.69	25502.48
645.83	25472.05
645.98	25387.79
646.13	25682.70
646.27	25891.01
646.42	25645.25
646.57	25769.30
646.71	25582.06
646.86	25837.17
647.00	25647.59
647.15	25493.12
647.30	25488.43
647.44	25546.95
647.59	24994.58
647.74	25333.96
647.88	25511.84
648.03	25603.12
648.17	25663.97
648.32	25715.47
648.47	25582.06
648.61	25717.81
648.76	25553.97
648.90	25720.15
649.05	25560.99
649.20	25338.64
649.34	25216.93
649.49	24744.14
649.63	25104.59
649.78	25055.43
649.92	25249.70
650.07	25425.24
650.21	25518.86
650.36	25287.15
650.51	25053.09
650.65	25034.37
650.80	25191.19
650.94	25387.79
651.09	25036.71
651.23	24638.82
651.38	25160.76
651.52	24900.96
651.67	25074.16
651.81	24849.47
651.96	25151.40
652.10	25046.07
652.25	25165.44
652.39	25184.16
652.54	25053.09
652.68	25088.20
652.83	24797.98
652.97	24870.53
653.12	24922.02
653.26	25064.80
653.41	24964.15
653.55	24889.26
653.70	24694.99
653.84	24704.35
653.99	24940.75
654.13	24540.52
654.27	24648.18
654.42	24751.17
654.56	24727.76
654.71	24594.35
654.85	24767.55
655.00	24753.51
655.14	24734.78
655.29	24554.56
655.43	24573.28
655.57	24505.41
655.72	24582.65
655.86	24732.44
656.01	24601.37
656.15	24542.86
656.30	24350.93
656.44	24070.07
656.58	24652.86
656.73	24641.16
656.87	24498.39
657.01	24318.17
657.16	24690.31
657.30	24552.22
657.45	24524.13
657.59	24472.64
657.73	24369.66
657.88	24554.56
658.02	24252.63
658.16	24318.17
658.31	24444.56
658.45	24222.20
658.60	24184.76
658.74	24198.80
658.88	24266.67
659.03	24107.52
659.17	24269.01
659.31	24156.67
659.46	24465.62
659.60	24285.40
659.74	24217.52
659.89	24149.65
660.03	23826.65
660.17	24093.47
660.32	23623.03
660.46	23946.02
660.60	23644.09
660.74	23559.83
660.89	24027.94
661.03	23693.24
661.17	23866.44
661.32	23477.91
661.46	23761.12
661.60	23468.55
661.74	23524.72
661.89	23782.18
662.03	23332.80
662.17	23435.78
662.31	23639.41
662.46	23424.08
662.60	23735.37
662.74	23309.40
662.88	23274.29
663.03	23276.63
663.17	23124.49
663.31	22972.36
663.45	23218.11
663.60	23051.94
663.74	22806.18
663.88	23370.25
664.02	23178.33
664.17	23417.06
664.31	22829.59
664.45	23328.12
664.59	23239.18
664.73	23033.21
664.88	22979.38
665.02	23063.64
665.16	22733.62
665.30	23056.62
665.44	22810.86
665.59	22991.08
665.73	22815.54
665.87	22534.68
666.01	22810.86
666.15	23026.19
666.29	22469.14
666.44	22761.71
666.58	22305.31
666.72	22817.88
666.86	22590.85
667.00	22700.86
667.14	22504.25
667.28	22223.39
667.43	22410.63
667.57	22487.87
667.71	22038.48
667.85	22157.85
667.99	22150.83
668.13	22199.98
668.27	21968.27
668.41	22295.94
668.56	22214.02
668.70	22160.19
668.84	22026.78
668.98	21972.95
669.12	21841.88
669.26	21933.16
669.40	21832.52
669.54	21947.20
669.68	21869.97
669.82	21572.72
669.96	21766.98
670.10	21607.83
670.25	21837.20
670.39	21628.89
670.53	21586.76
670.67	21652.30
670.81	21462.71
670.95	21579.74
671.09	21577.40
671.23	21788.05
671.37	21528.25
671.51	21855.92
671.65	21312.92
671.79	21060.14
671.93	21390.16
672.07	21439.31
672.21	21142.06
672.35	21404.20
672.49	20931.41
672.63	20940.77
672.77	20929.07
672.91	21001.63
673.05	20816.72
673.19	21064.82
673.33	21184.19
673.47	20688.00
673.61	21380.79
673.75	20629.48
673.89	20643.52
674.03	20814.38
674.17	20837.79
674.31	20528.84
674.45	20472.67
674.59	20816.72
674.73	20767.57
674.87	20442.24
675.01	20613.10
675.15	20587.35
675.29	20107.54
675.43	20023.28
675.56	19960.09
675.70	20159.03
675.84	20126.27
675.98	19728.38
676.12	20390.75
676.26	20489.05
676.40	20226.91
676.54	20229.25
676.68	20060.73
676.82	19681.56
676.96	19826.68
677.10	19704.97
677.23	19601.99
677.37	19159.63
677.51	19597.31
677.65	19557.52
677.79	19075.37
677.93	19215.80
678.07	19297.72
678.21	19201.76
678.34	19389.00
678.48	18937.27
678.62	19297.72
678.76	18885.78
678.90	18853.02
679.04	19192.39
679.18	19056.64
679.31	18604.92
679.45	18775.78
679.59	18853.02
679.73	18487.89
679.87	18394.27
680.00	18558.11
680.14	18066.60
680.28	18396.61
680.42	18593.22
680.56	18515.98
680.70	18597.90
680.83	18436.40
680.97	18225.75
681.11	18153.20
681.25	18239.79
681.39	17877.01
681.52	17893.40
681.66	17961.27
681.80	17933.18
681.94	17975.31
682.07	17884.03
682.21	17827.86
682.35	17518.91
682.49	17558.70
682.62	17563.38
682.76	17603.17
682.90	17680.41
683.04	17289.54
683.17	17432.31
683.31	17591.47
683.45	17661.68
683.59	17434.65
683.72	17380.82
683.86	16980.59
684.00	16901.01
684.13	17336.35
684.27	16938.46
684.41	16793.34
684.55	16645.89
684.68	16723.13
684.82	16678.66
684.96	16737.17
685.09	16664.61
685.23	16493.76
685.37	16442.26
685.50	16599.08
685.64	16734.83
685.78	16549.93
685.91	16578.01
686.05	16498.44
686.19	16121.61
686.32	16381.41
686.46	16166.08
686.60	15943.73
686.73	16292.47
686.87	15932.03
687.01	15836.06
687.14	15744.78
687.28	15978.84
687.42	15693.29
687.55	15723.72
687.69	15688.61
687.82	15672.23
687.96	15845.43
688.10	15611.37
688.23	15452.22
688.37	15435.83
688.50	15492.01
688.64	15761.17
688.78	15220.50
688.91	15161.99
689.05	15190.08
689.18	15192.42
689.32	14750.06
689.46	14761.76
689.59	14981.77
689.73	14963.04
689.86	14712.61
690.00	14792.19
690.13	14806.23
690.27	14869.42
690.41	14679.84
690.54	14579.20
690.68	14850.70
690.81	14569.83
690.95	14663.46
691.08	14562.81
691.22	14476.21
691.35	13965.98
691.49	14394.29
691.62	14092.37
691.76	14043.21
691.89	14024.49
692.03	13818.52
692.16	13900.44
692.30	13942.57
692.43	13783.41
692.57	13668.73
692.70	13586.81
692.84	13846.61
692.97	13551.70
693.11	13575.11
693.24	13767.03
693.38	13633.62
693.51	13661.71
693.65	13633.62
693.78	13359.78
693.92	13621.92
694.05	13458.08
694.19	13322.33
694.32	13193.60
694.45	12950.18
694.59	12933.80
694.72	12751.24
694.86	12643.57
694.99	12755.92
695.13	12924.44
695.26	12856.56
695.39	12641.23
695.53	12802.73
695.66	12746.56
695.80	12540.59
695.93	12861.24
696.07	12762.94
696.20	12690.38
696.33	12456.33
696.47	12362.71
696.60	12219.94
696.73	12360.37
696.87	12276.11
697.00	12299.52
697.14	12243.34
697.27	11962.48
697.40	12070.14
697.54	11866.52
697.67	11676.93
697.80	12065.46
697.94	11770.55
698.07	11726.08
698.21	11578.63
698.34	11798.64
698.47	11960.14
698.61	11740.13
698.74	11604.38
698.87	11632.46
699.01	11447.56
699.14	11405.43
699.27	11393.73
699.40	11545.86
699.54	11314.15
699.67	11318.83
699.80	11316.49
699.94	11407.77
700.07	10892.85
700.20	11147.97
700.34	10752.42
700.47	10888.17
700.60	10871.79
700.73	10967.75
700.87	10923.28
701.00	10803.91
701.13	10782.85
701.26	10637.73
701.40	10672.84
701.53	10822.64
701.66	10661.14
701.79	10611.99
701.93	10530.07
702.06	10256.23
702.19	10394.32
702.32	10223.46
702.46	10270.27
702.59	10197.71
702.72	10265.59
702.85	10043.24
702.99	10118.14
703.12	10108.77
703.25	9942.60
703.38	9991.75
703.51	9944.94
703.65	9900.47
703.78	10005.79
703.91	9745.99
704.04	9916.85
704.17	9895.78
704.31	9762.37
704.44	9504.92
704.57	9535.34
704.70	9605.56
704.83	9397.25
704.96	9455.76
705.10	9488.53
705.23	9268.52
>>>>>End Processed Spectral Data<<<<<
