SpectraSuite Data File
++++++++++++++++++++++++++++++++++++
Date: Fri Oct 18 13:58:18 GMT-05:00 2013
User: bianchi
Dark Spectrum Present: No
Reference Spectrum Present: No
Number of Sampled Component Spectra: 1
Spectrometers: USB2+H05261
Integration Time (usec): 50000 (USB2+H05261)
Spectra Averaged: 1 (USB2+H05261)
Boxcar Smoothing: 0 (USB2+H05261)
Correct for Electrical Dark: No (USB2+H05261)
Strobe/Lamp Enabled: No (USB2+H05261)
Correct for Detector Non-linearity: No (USB2+H05261)
Correct for Stray Light: No (USB2+H05261)
Number of Pixels in Processed Spectrum: 2048
>>>>>Begin Processed Spectral Data<<<<<
365.73	21.06
365.92	21.06
366.12	21.06
366.32	0.00
366.52	0.00
366.72	0.00
366.91	0.00
367.11	0.00
367.31	0.00
367.51	0.00
367.70	0.00
367.90	0.00
368.10	0.00
368.30	0.00
368.49	0.00
368.69	0.00
368.89	0.00
369.09	0.00
369.28	0.00
369.48	0.00
369.68	0.00
369.87	0.00
370.07	0.00
370.27	0.00
370.47	0.00
370.66	35.11
370.86	170.86
371.06	149.79
371.25	161.50
371.45	84.26
371.65	105.32
371.84	142.77
372.04	114.69
372.24	135.75
372.44	220.01
372.63	210.65
372.83	189.58
373.03	184.90
373.22	196.60
373.42	208.31
373.62	234.05
373.81	227.03
374.01	231.71
374.21	121.71
374.40	238.73
374.60	241.08
374.79	276.18
374.99	191.92
375.19	175.54
375.38	229.37
375.58	259.80
375.78	222.35
375.97	248.10
376.17	271.50
376.37	306.61
376.56	292.57
376.76	280.86
376.95	187.24
377.15	250.44
377.35	198.95
377.54	285.55
377.74	315.97
377.93	257.46
378.13	271.50
378.33	269.16
378.52	325.33
378.72	313.63
378.91	285.55
379.11	271.50
379.31	198.95
379.50	283.20
379.70	271.50
379.89	271.50
380.09	212.99
380.28	304.27
380.48	346.40
380.68	290.23
380.87	257.46
381.07	255.12
381.26	337.04
381.46	301.93
381.65	283.20
381.85	334.70
382.04	320.65
382.24	311.29
382.43	287.89
382.63	227.03
382.83	372.15
383.02	341.72
383.22	315.97
383.41	311.29
383.61	292.57
383.80	360.44
384.00	313.63
384.19	381.51
384.39	348.74
384.58	351.08
384.78	330.02
384.97	346.40
385.17	327.68
385.36	421.30
385.56	360.44
385.75	386.19
385.95	351.08
386.14	388.53
386.34	374.49
386.53	360.44
386.72	430.66
386.92	444.70
387.11	479.81
387.31	395.55
387.50	362.78
387.70	423.64
387.89	411.93
388.09	318.31
388.28	416.62
388.48	444.70
388.67	428.32
388.86	414.27
389.06	444.70
389.25	496.19
389.45	496.19
389.64	517.26
389.84	507.90
390.03	493.85
390.22	411.93
390.42	498.53
390.61	449.38
390.81	500.87
391.00	521.94
391.19	554.71
391.39	514.92
391.58	430.66
391.78	463.43
391.97	519.60
392.16	468.11
392.36	578.11
392.55	526.62
392.75	571.09
392.94	580.45
393.13	559.39
393.33	631.94
393.52	545.34
393.71	634.29
393.91	613.22
394.10	613.22
394.29	582.79
394.49	622.58
394.68	615.56
394.88	559.39
395.07	554.71
395.26	582.79
395.46	566.41
395.65	594.50
395.84	641.31
396.04	638.97
396.23	622.58
396.42	631.94
396.62	664.71
396.81	622.58
397.00	613.22
397.19	601.52
397.39	594.50
397.58	678.76
397.77	706.84
397.97	629.60
398.16	753.65
398.35	653.01
398.55	702.16
398.74	667.05
398.93	727.91
399.12	727.91
399.32	767.70
399.51	753.65
399.70	741.95
399.90	720.88
400.09	725.57
400.28	713.86
400.47	763.01
400.67	739.61
400.86	765.36
401.05	732.59
401.24	763.01
401.44	755.99
401.63	772.38
401.82	812.17
402.01	746.63
402.21	905.79
402.40	912.81
402.59	793.44
402.78	763.01
402.97	816.85
403.17	847.27
403.36	922.17
403.55	793.44
403.74	795.78
403.93	891.74
404.13	887.06
404.32	873.02
404.51	870.68
404.70	891.74
404.89	894.08
405.09	910.47
405.28	910.47
405.47	919.83
405.66	1008.77
405.85	1013.45
406.05	933.87
406.24	915.15
406.43	980.68
406.62	1057.92
406.81	1039.20
407.00	924.51
407.20	997.07
407.39	1015.79
407.58	976.00
407.77	1081.33
407.96	990.05
408.15	1060.26
408.34	1018.13
408.54	1130.48
408.73	1074.31
408.92	1074.31
409.11	1125.80
409.30	1090.69
409.49	1139.84
409.68	1078.99
409.87	1083.67
410.07	1116.44
410.26	1167.93
410.45	1217.08
410.64	1179.63
410.83	1111.75
411.02	1242.82
411.21	1228.78
411.40	1310.70
411.59	1174.95
411.78	1219.42
411.98	1256.87
412.17	1217.08
412.36	1277.93
412.55	1306.02
412.74	1327.08
412.93	1462.83
413.12	1291.98
413.31	1359.85
413.50	1306.02
413.69	1465.18
413.88	1376.24
414.07	1416.02
414.26	1439.43
414.45	1502.62
414.64	1497.94
414.83	1495.60
415.02	1509.65
415.22	1500.28
415.41	1570.50
415.60	1528.37
415.79	1521.35
415.98	1666.46
416.17	1593.90
416.36	1558.80
416.55	1652.42
416.74	1603.27
416.93	1645.40
417.12	1694.55
417.31	1701.57
417.50	1692.21
417.69	1799.87
417.88	1743.70
418.07	1647.74
418.26	1732.00
418.45	1795.19
418.64	1818.60
418.83	1877.11
419.02	1788.17
419.21	1788.17
419.39	1898.17
419.58	1757.74
419.77	1827.96
419.96	1825.62
420.15	1783.49
420.34	1741.36
420.53	1996.48
420.72	1959.03
420.91	1863.07
421.10	1898.17
421.29	2033.93
421.48	1928.60
421.67	1914.56
421.86	1865.41
422.05	2005.84
422.24	1907.54
422.43	1832.64
422.61	2017.54
422.80	2071.37
422.99	1944.99
423.18	2001.16
423.37	2019.88
423.56	2012.86
423.75	2029.24
423.94	1905.20
424.13	1926.26
424.32	2001.16
424.50	2094.78
424.69	2134.57
424.88	2064.35
425.07	2005.84
425.26	2069.03
425.45	1984.77
425.64	2085.42
425.83	1975.41
426.01	2026.90
426.20	2092.44
426.39	2057.33
426.58	2101.80
426.77	2045.63
426.96	2052.65
427.15	2115.84
427.33	2200.10
427.52	2139.25
427.71	2083.08
427.90	2106.48
428.09	2106.48
428.28	2172.02
428.46	2218.83
428.65	2162.66
428.84	2188.40
429.03	2223.51
429.22	2272.66
429.40	2146.27
429.59	2279.68
429.78	2106.48
429.97	2092.44
430.16	2172.02
430.34	2263.30
430.53	2375.64
430.72	2293.72
430.91	2321.81
431.10	2326.49
431.28	2340.54
431.47	2272.66
431.66	2410.75
431.85	2368.62
432.03	2385.01
432.22	2438.84
432.41	2326.49
432.60	2368.62
432.79	2392.03
432.97	2492.67
433.16	2473.95
433.35	2429.48
433.54	2399.05
433.72	2574.59
433.91	2520.76
434.10	2576.93
434.28	2427.14
434.47	2487.99
434.66	2600.34
434.85	2532.46
435.03	2532.46
435.22	2511.39
435.41	2651.83
435.59	2607.36
435.78	2600.34
435.97	2602.68
436.16	2633.10
436.34	2548.84
436.53	2715.02
436.72	2766.51
436.90	2722.04
437.09	2700.98
437.28	2649.49
437.46	2724.38
437.65	2693.96
437.84	2796.94
438.02	2700.98
438.21	2647.15
438.40	2630.76
438.58	2822.69
438.77	2913.97
438.96	2888.22
439.14	2867.16
439.33	2946.73
439.52	3021.63
439.70	2939.71
439.89	3115.25
440.08	3005.25
440.26	3101.21
440.45	3042.70
440.63	3084.83
440.82	3049.72
441.01	3096.53
441.19	3126.96
441.38	3133.98
441.57	3133.98
441.75	3356.33
441.94	3346.97
442.12	3260.37
442.31	3194.83
442.50	3215.90
442.68	3169.09
442.87	3255.69
443.05	3342.28
443.24	3358.67
443.43	3332.92
443.61	3480.38
443.80	3468.67
443.98	3304.84
444.17	3283.77
444.35	3293.13
444.54	3550.59
444.73	3316.54
444.91	3459.31
445.10	3494.42
445.28	3370.37
445.47	3279.09
445.65	3370.37
445.84	3492.08
446.02	3393.78
446.21	3398.46
446.39	3356.33
446.58	3361.01
446.77	3522.51
446.95	3473.36
447.14	3389.10
447.32	3574.00
447.51	3536.55
447.69	3581.02
447.88	3506.12
448.06	3557.61
448.25	3501.44
448.43	3471.01
448.62	3433.57
448.80	3588.04
448.99	3588.04
449.17	3529.53
449.36	3522.51
449.54	3583.36
449.73	3812.73
449.91	3726.13
450.10	3637.19
450.28	3803.37
450.46	3599.74
450.65	3705.07
450.83	3716.77
451.02	3758.90
451.20	3784.65
451.39	3782.31
451.57	3789.33
451.76	3819.75
451.94	3822.09
452.13	3955.51
452.31	3756.56
452.49	3784.65
452.68	3786.99
452.86	3925.08
453.05	3852.52
453.23	3920.40
453.42	3908.69
453.60	3967.21
453.78	3971.89
453.97	3691.02
454.15	3882.95
454.34	3861.88
454.52	3904.01
454.70	4107.64
454.89	4037.42
455.07	3967.21
455.26	3948.48
455.44	3934.44
455.62	4100.62
455.81	4067.85
455.99	4028.06
456.17	4273.82
456.36	4138.07
456.54	4191.90
456.73	4215.30
456.91	4201.26
457.09	4311.27
457.28	4423.61
457.46	4154.45
457.64	4390.84
457.83	4182.54
458.01	4346.37
458.19	4257.43
458.38	4306.59
458.56	4449.36
458.74	4409.57
458.93	4393.19
459.11	4454.04
459.29	4409.57
459.48	4489.15
459.66	4540.64
459.84	4561.70
460.03	4634.26
460.21	4638.94
460.39	4479.79
460.57	4351.06
460.76	4592.13
460.94	4709.16
461.12	4676.39
461.31	4596.81
461.49	4521.92
461.67	4634.26
461.85	4791.08
462.04	4648.30
462.22	4978.32
462.40	4835.55
462.59	4779.37
462.77	4779.37
462.95	4784.06
463.13	4753.63
463.32	4758.31
463.50	4793.42
463.68	4849.59
463.86	4774.69
464.05	4814.48
464.23	4854.27
464.41	4891.72
464.59	4758.31
464.78	4873.00
464.96	4983.00
465.14	4873.00
465.32	4973.64
465.50	4767.67
465.69	5029.81
465.87	4943.21
466.05	4924.49
466.23	4830.87
466.41	4865.97
466.60	5174.92
466.78	4999.38
466.96	5137.48
467.14	5097.69
467.32	5111.73
467.51	5163.22
467.69	4980.66
467.87	5123.43
468.05	5167.90
468.23	5100.03
468.41	5107.05
468.60	5156.20
468.78	5179.61
468.96	5142.16
469.14	5203.01
469.32	5247.48
469.50	5076.62
469.69	5116.41
469.87	5369.19
470.05	5289.61
470.23	5394.93
470.41	5437.06
470.59	5380.89
470.77	5364.51
470.95	5411.32
471.14	5526.00
471.32	5523.66
471.50	5666.44
471.68	5628.99
471.86	5720.27
472.04	5640.69
472.22	5844.32
472.40	5640.69
472.58	5685.16
472.77	5727.29
472.95	5949.64
473.13	5879.43
473.31	5650.05
473.49	5774.10
473.67	5774.10
473.85	5893.47
474.03	6022.20
474.21	6015.18
474.39	6008.16
474.57	6204.76
474.75	6104.12
474.93	6087.73
475.12	6047.94
475.30	6104.12
475.48	6139.23
475.66	6221.14
475.84	6270.30
476.02	6345.19
476.20	6335.83
476.38	6633.08
476.56	6588.61
476.74	6572.22
476.92	6434.13
477.10	6502.01
477.28	6448.18
477.46	6628.40
477.64	6553.50
477.82	6736.06
478.00	6827.34
478.18	6796.92
478.36	6970.12
478.54	7222.89
478.72	7117.57
478.90	7098.84
479.08	7129.27
479.26	7218.21
479.44	7302.47
479.62	7211.19
479.80	7389.07
479.98	7293.11
480.16	7379.71
480.34	7487.37
480.52	7499.08
480.70	7639.51
480.88	7602.06
481.06	7693.34
481.24	7716.75
481.41	7756.54
481.59	8032.72
481.77	8042.08
481.95	7990.59
482.13	8173.15
482.31	8032.72
482.49	8205.92
482.67	8266.77
482.85	8435.29
483.03	8407.20
483.21	8557.00
483.39	8521.89
483.57	8739.56
483.74	8531.25
483.92	8622.53
484.10	8786.37
484.28	8889.35
484.46	9048.51
484.64	9036.81
484.82	8809.78
485.00	9057.87
485.18	9497.89
485.35	9514.28
485.53	9256.82
485.71	9277.88
485.89	9666.41
486.07	9406.61
486.25	9720.24
486.43	9722.59
486.61	9916.85
486.78	9926.21
486.96	9905.15
487.14	10111.11
487.32	9975.36
487.50	10204.74
487.68	10263.25
487.85	10207.08
488.03	10326.44
488.21	10604.97
488.39	10469.22
488.57	10686.89
488.75	10506.66
488.92	10960.73
489.10	10871.79
489.28	10979.45
489.46	10932.64
489.64	10967.75
489.81	11194.78
489.99	11194.78
490.17	11267.34
490.35	11440.54
490.53	11323.51
490.70	11515.44
490.88	11492.03
491.06	11742.47
491.24	11765.87
491.41	11803.32
491.59	11871.20
491.77	12011.63
491.95	12086.53
492.13	12123.98
492.30	12278.45
492.48	12276.11
492.66	12531.23
492.84	12170.79
493.01	12613.15
493.19	12475.06
493.37	12587.40
493.54	12723.15
493.72	12945.50
493.90	12901.03
494.08	13039.12
494.25	12940.82
494.43	13158.49
494.61	13305.95
494.79	13294.24
494.96	13277.86
495.14	13481.49
495.32	13458.08
495.49	13554.04
495.67	13584.47
495.85	13682.77
496.02	13558.72
496.20	13991.72
496.38	13947.25
496.55	13701.50
496.73	14120.45
496.91	14221.10
497.09	14342.80
497.26	14436.42
497.44	14265.57
497.62	14171.94
497.79	14569.83
497.97	14258.54
498.14	14338.12
498.32	14743.03
498.50	14885.81
498.67	14864.74
498.85	14745.38
499.03	15028.58
499.20	15173.69
499.38	14981.77
499.56	15166.67
499.73	14949.00
499.91	15208.80
500.08	15239.23
500.26	15269.66
500.44	15367.96
500.61	15477.96
500.79	15494.35
500.97	15461.58
501.14	15681.59
501.32	15707.34
501.49	15536.48
501.67	15630.10
501.84	15962.45
502.02	15627.76
502.20	15988.20
502.37	16248.00
502.55	16259.70
502.72	16109.91
502.90	16100.55
503.07	16297.15
503.25	16210.55
503.43	16170.76
503.60	16489.07
503.78	16320.56
503.95	16404.81
504.13	16856.54
504.30	16563.97
504.48	16402.47
504.65	16666.95
504.83	16568.65
505.01	16847.18
505.18	16847.18
505.36	16898.67
505.53	16798.02
505.71	17041.44
505.88	17032.08
506.06	16982.93
506.23	17081.23
506.41	17188.89
506.58	17436.99
506.76	17528.27
506.93	17266.13
507.11	17806.80
507.28	17497.84
507.46	17638.28
507.63	17664.02
507.81	17858.29
507.98	17584.44
508.16	17846.58
508.33	17877.01
508.50	17762.33
508.68	17589.13
508.85	18214.05
509.03	17788.07
509.20	17940.21
509.38	18127.45
509.55	18204.69
509.73	18281.92
509.90	18387.25
510.08	18452.78
510.25	18429.38
510.42	18630.66
510.60	18534.70
510.77	18609.60
510.95	18604.92
511.12	18597.90
511.30	18845.99
511.47	18743.01
511.64	18855.36
511.82	18513.64
511.99	18768.76
512.17	18904.51
512.34	18869.40
512.51	19051.96
512.69	19199.41
512.86	18930.25
513.04	19307.08
513.21	19421.77
513.38	19213.46
513.56	19295.38
513.73	19349.21
513.90	19454.53
514.08	19604.33
514.25	19433.47
514.43	19960.09
514.60	19688.59
514.77	19716.67
514.95	19819.66
515.12	19871.15
515.29	19590.28
515.47	19702.63
515.64	19946.05
515.81	19873.49
515.99	20198.82
516.16	19992.86
516.33	20032.65
516.51	20276.06
516.68	19971.79
516.85	20224.57
517.03	20301.81
517.20	20355.64
517.37	20177.76
517.54	20322.87
517.72	20882.26
517.89	20528.84
518.06	20613.10
518.24	20430.54
518.41	20573.31
518.58	21001.63
518.75	20702.04
518.93	21053.12
519.10	20865.88
519.27	20877.58
519.45	21165.46
519.62	21018.01
519.79	21235.68
519.96	21123.33
520.14	20919.71
520.31	21312.92
520.48	21280.15
520.65	21163.12
520.83	21563.36
521.00	21277.81
521.17	21378.45
521.34	21460.37
521.52	21635.91
521.69	21411.22
521.86	21642.93
522.03	21710.81
522.20	21607.83
522.38	21858.26
522.55	21671.02
522.72	21738.90
522.89	21954.22
523.07	22204.66
523.24	22148.49
523.41	21862.94
523.58	22033.80
523.75	22134.45
523.92	22036.14
524.10	21865.28
524.27	22321.69
524.44	22324.03
524.61	22462.12
524.78	22436.38
524.96	22094.66
525.13	22305.31
525.30	22106.36
525.47	22319.35
525.64	22345.09
525.81	22576.81
525.98	22569.79
526.16	22792.14
526.33	22644.68
526.50	22913.84
526.67	22457.44
526.84	22867.03
527.01	22920.87
527.18	22937.25
527.36	23082.36
527.53	22925.55
527.70	23091.73
527.87	22707.88
528.04	23367.91
528.21	22899.80
528.38	23089.38
528.55	23248.54
528.72	23199.39
528.89	23367.91
529.07	23030.87
529.24	23246.20
529.41	23377.27
529.58	23433.44
529.75	23391.31
529.92	23449.83
530.09	23356.21
530.26	23639.41
530.43	23449.83
530.60	23672.18
530.77	23634.73
530.94	23915.59
531.11	23400.68
531.28	23810.27
531.46	23885.17
531.63	24004.53
531.80	23803.25
531.97	24327.53
532.14	24247.95
532.31	23913.25
532.48	23969.43
532.65	24294.76
532.82	23927.30
532.99	24173.05
533.16	23967.09
533.33	24421.15
533.50	24566.26
533.67	24346.25
533.84	24259.65
534.01	24084.11
534.18	24350.93
534.35	24318.17
534.52	24154.33
534.69	24503.07
534.86	24713.72
535.03	24723.08
535.20	24940.75
535.37	24802.66
535.54	24842.45
535.71	24208.16
535.88	24205.82
536.05	24851.81
536.22	24886.92
536.38	24790.95
536.55	24982.88
536.72	24929.05
536.89	24915.00
537.06	25179.48
537.23	25022.67
537.40	24996.92
537.57	24954.79
537.74	25067.14
537.91	25528.22
538.08	25387.79
538.25	25331.62
538.42	25376.09
538.59	25322.26
538.75	25383.11
538.92	24978.20
539.09	25240.34
539.26	25240.34
539.43	25369.07
539.60	25568.01
539.77	25455.67
539.94	25717.81
540.11	25560.99
540.28	25216.93
540.44	25619.50
540.61	25486.09
540.78	25523.54
540.95	25462.69
541.12	25605.46
541.29	25537.59
541.46	26202.30
541.62	25582.06
541.79	25383.11
541.96	25509.50
542.13	25806.75
542.30	26167.19
542.47	25745.89
542.63	25916.75
542.80	26031.44
542.97	26005.69
543.14	26050.16
543.31	26249.11
543.48	26263.15
543.64	26253.79
543.81	26422.31
543.98	26462.10
544.15	26558.06
544.32	26436.35
544.48	26405.92
544.65	26522.95
544.82	26434.01
544.99	26492.52
545.16	26738.28
545.32	26586.15
545.49	26789.77
545.66	27173.62
545.83	26859.99
546.00	26981.70
546.16	26757.00
546.33	26562.74
546.50	26621.25
546.67	26630.62
546.83	26108.68
547.00	26761.69
547.17	26649.34
547.34	26862.33
547.50	26972.33
547.67	27215.75
547.84	26878.71
548.00	26672.74
548.17	27070.64
548.34	26803.82
548.51	27442.78
548.67	27470.87
548.84	27192.34
549.01	27138.51
549.18	26991.06
549.34	26862.33
549.51	27260.22
549.68	27105.74
549.84	27276.60
550.01	27145.53
550.18	27051.91
550.34	27150.21
550.51	27042.55
550.68	27770.46
550.84	27058.93
551.01	27433.42
551.18	27339.80
551.34	27426.40
551.51	27159.58
551.68	27475.55
551.84	27447.46
552.01	27690.88
552.18	27789.18
552.34	27295.33
552.51	27924.93
552.68	27463.85
552.84	27931.95
553.01	27765.78
553.18	27580.87
553.34	27627.68
553.51	28086.43
553.67	28098.13
553.84	28095.79
554.01	27978.76
554.17	28037.28
554.34	27775.14
554.51	27931.95
554.67	28034.94
554.84	27997.49
555.00	27927.27
555.17	27777.48
555.33	28107.49
555.50	28053.66
555.67	28037.28
555.83	28137.92
556.00	27782.16
556.16	28467.94
556.33	28285.37
556.50	28233.88
556.66	28486.66
556.83	28346.23
556.99	28732.42
557.16	28428.15
557.32	28294.74
557.49	28360.27
557.65	28046.64
557.82	28350.91
557.98	28182.39
558.15	28058.34
558.32	28788.59
558.48	28285.37
558.65	28584.96
558.81	28842.42
558.98	28472.62
559.14	28748.80
559.31	28252.61
559.47	28577.94
559.64	28964.13
559.80	28519.43
559.97	28823.70
560.13	28514.75
560.30	28608.37
560.46	28762.84
560.63	28575.60
560.79	29027.32
560.96	28905.62
561.12	28617.73
561.29	28732.42
561.45	28964.13
561.61	28699.65
561.78	28884.55
561.94	29046.05
562.11	29163.08
562.27	28666.88
562.44	28987.53
562.60	28886.89
562.77	28514.75
562.93	28985.19
563.10	29284.78
563.26	28765.18
563.42	28978.17
563.59	29156.05
563.75	28961.79
563.92	29149.03
564.08	28943.06
564.24	29343.30
564.41	28875.19
564.57	28751.14
564.74	29032.00
564.90	28980.51
565.07	29088.18
565.23	28945.41
565.39	28748.80
565.56	29350.32
565.72	29261.38
565.88	29123.29
566.05	29113.92
566.21	28947.75
566.38	29048.39
566.54	28971.15
566.70	29486.07
566.87	29596.07
567.03	29436.92
567.19	29408.83
567.36	29160.73
567.52	28996.90
567.68	29097.54
567.85	28856.46
568.01	29263.72
568.17	29106.90
568.34	29261.38
568.50	29570.33
568.66	29153.71
568.83	29682.67
568.99	28964.13
569.15	29102.22
569.32	29202.86
569.48	28879.87
569.64	29319.89
569.81	29181.80
569.97	29202.86
570.13	29401.81
570.30	29118.60
570.46	29378.40
570.62	29504.79
570.78	29046.05
570.95	28980.51
571.11	29422.87
571.27	29511.81
571.43	29291.80
571.60	29252.02
571.76	29364.36
571.92	29605.44
572.09	29256.70
572.25	29970.56
572.41	29390.11
572.57	29537.56
572.74	29626.50
572.90	29296.49
573.06	29675.65
573.22	29607.78
573.38	29614.80
573.55	29792.68
573.71	29411.17
573.87	29806.72
574.03	29404.15
574.20	29525.86
574.36	29184.14
574.52	29413.51
574.68	29436.92
574.84	29659.27
575.01	29514.16
575.17	29539.90
575.33	29408.83
575.49	29558.63
575.65	29467.34
575.82	29933.11
575.98	29575.01
576.14	29528.20
576.30	29589.05
576.46	29762.25
576.62	29338.62
576.79	29514.16
576.95	29572.67
577.11	29303.51
577.27	29713.10
577.43	29802.04
577.59	29788.00
577.75	29977.58
577.92	29951.84
578.08	29324.57
578.24	29654.59
578.40	29785.66
578.56	29680.33
578.72	29694.38
578.88	30101.63
579.04	29846.51
579.21	29717.78
579.37	29771.61
579.53	29832.47
579.69	29965.88
579.85	29511.81
580.01	29635.86
580.17	29422.87
580.33	29476.71
580.49	29708.42
580.65	30080.56
580.82	30157.80
580.98	29862.90
581.14	29975.24
581.30	29912.05
581.46	29701.40
581.62	29832.47
581.78	29860.55
581.94	29869.92
582.10	29811.40
582.26	29830.13
582.42	29638.20
582.58	30029.07
582.74	29841.83
582.90	30118.01
583.06	29986.94
583.22	29991.62
583.38	29923.75
583.54	29390.11
583.70	29755.23
583.86	29928.43
584.02	29495.43
584.18	30204.61
584.34	30050.14
584.50	30167.16
584.66	29759.91
584.82	29771.61
584.98	29703.74
585.14	29970.56
585.30	29755.23
585.46	29811.40
585.62	29649.91
585.78	29797.36
585.94	29802.04
586.10	29722.46
586.26	29900.34
586.42	30218.66
586.58	30162.48
586.74	29844.17
586.90	29322.23
587.06	29776.30
587.22	30197.59
587.38	29668.63
587.54	29876.94
587.70	30522.93
587.86	29811.40
588.02	30073.54
588.18	30300.58
588.34	30174.19
588.49	29846.51
588.65	30022.05
588.81	30129.72
588.97	29898.00
589.13	29806.72
589.29	30003.33
589.45	30373.13
589.61	30038.44
589.77	30319.30
589.93	30417.60
590.08	30286.53
590.24	30338.02
590.40	30436.33
590.56	30150.78
590.72	30003.33
590.88	30218.66
591.04	30101.63
591.20	30340.36
591.35	30438.67
591.51	30412.92
591.67	30316.96
591.83	30478.46
591.99	30768.68
592.15	30078.22
592.31	30335.68
592.46	30300.58
592.62	30103.97
592.78	29970.56
592.94	29668.63
593.10	29942.47
593.26	30274.83
593.41	30412.92
593.57	30368.45
593.73	29982.26
593.89	30651.66
594.05	30532.29
594.20	30249.08
594.36	30099.29
594.52	30225.68
594.68	30408.24
594.84	29832.47
594.99	30295.89
595.15	30143.76
595.31	30799.11
595.47	30548.67
595.62	30700.81
595.78	30176.53
595.94	30307.60
596.10	30274.83
596.25	30309.94
596.41	30398.88
596.57	30045.46
596.73	30239.72
596.88	30054.82
597.04	30412.92
597.20	30581.44
597.36	30361.43
597.51	30555.69
597.67	30281.85
597.83	30323.98
597.99	30216.32
598.14	30267.81
598.30	30508.88
598.46	30436.33
598.61	30216.32
598.77	30754.64
598.93	30457.39
599.09	30185.89
599.24	30773.36
599.40	30408.24
599.56	30593.14
599.71	30139.08
599.87	30518.25
600.03	30576.76
600.18	30305.26
600.34	30478.46
600.50	30562.72
600.65	30787.41
600.81	30551.01
600.97	30396.54
601.12	30813.15
601.28	30534.63
601.44	30775.70
601.59	30265.47
601.75	30335.68
601.91	30969.97
602.06	30242.06
602.22	30228.02
602.37	30218.66
602.53	30230.36
602.69	30782.73
602.84	30448.03
603.00	30602.50
603.16	30265.47
603.31	30471.43
603.47	30391.86
603.62	30572.08
603.78	30607.19
603.94	30169.51
604.09	30256.11
604.25	29972.90
604.40	30305.26
604.56	30293.55
604.71	30771.02
604.87	30843.58
605.03	30565.06
605.18	30675.06
605.34	30487.82
605.49	30136.74
605.65	30675.06
605.80	30291.21
605.96	30225.68
606.12	30586.12
606.27	30356.75
606.43	30045.46
606.58	30359.09
606.74	30253.76
606.89	30373.13
607.05	30810.81
607.20	30431.65
607.36	30621.23
607.51	30419.94
607.67	29907.37
607.82	29926.09
607.98	30298.23
608.13	30272.49
608.29	30183.55
608.44	30436.33
608.60	30270.15
608.75	30520.59
608.91	30335.68
609.06	29996.31
609.22	30417.60
609.37	30237.38
609.53	29984.60
609.68	30118.01
609.84	30064.18
609.99	30260.79
610.15	30031.41
610.30	30017.37
610.46	29968.22
610.61	30019.71
610.76	30309.94
610.92	30267.81
611.07	29804.38
611.23	29727.14
611.38	30216.32
611.54	29834.81
611.69	29975.24
611.84	29755.23
612.00	30005.67
612.15	29710.76
612.31	30492.50
612.46	30176.53
612.62	30054.82
612.77	29816.08
612.92	30235.04
613.08	30188.23
613.23	29989.28
613.39	29764.59
613.54	29717.78
613.69	29818.42
613.85	29809.06
614.00	29621.82
614.15	29937.79
614.31	29642.88
614.46	30092.27
614.62	30040.78
614.77	29610.12
614.92	30052.48
615.08	29923.75
615.23	29881.62
615.38	29795.02
615.54	29621.82
615.69	29827.79
615.84	29727.14
616.00	29427.56
616.15	29703.74
616.30	30120.35
616.46	29558.63
616.61	29757.57
616.76	30075.88
616.92	29708.42
617.07	29537.56
617.22	29357.34
617.37	29626.50
617.53	29656.93
617.68	29469.69
617.83	29200.52
617.99	29429.90
618.14	29298.83
618.29	29502.45
618.45	29315.21
618.60	29289.46
618.75	29163.08
618.90	29523.52
619.06	29530.54
619.21	29457.98
619.36	29509.47
619.51	29362.02
619.67	29172.44
619.82	28694.97
619.97	29322.23
620.12	28980.51
620.28	28865.83
620.43	29584.37
620.58	29685.01
620.73	29476.71
620.89	29336.27
621.04	29411.17
621.19	29369.04
621.34	29078.82
621.49	29317.55
621.65	28706.67
621.80	29111.58
621.95	28788.59
622.10	28727.74
622.25	28931.36
622.41	29097.54
622.56	28804.97
622.71	28706.67
622.86	28711.35
623.01	28982.85
623.16	28847.10
623.32	28837.74
623.47	29085.84
623.62	29074.13
623.77	29053.07
623.92	28741.78
624.07	28914.98
624.23	28861.15
624.38	28964.13
624.53	29010.94
624.68	29233.29
624.83	29050.73
624.98	28854.12
625.13	28533.47
625.29	29139.67
625.44	28723.05
625.59	28657.52
625.74	28575.60
625.89	28891.57
626.04	28638.80
626.19	28580.28
626.34	28313.46
626.49	28446.87
626.65	28685.61
626.80	28912.64
626.95	28781.57
627.10	28615.39
627.25	28638.80
627.40	28311.12
627.55	28615.39
627.70	28166.01
627.85	28098.13
628.00	28297.08
628.15	28065.36
628.30	28446.87
628.45	28701.99
628.60	28315.80
628.76	28414.10
628.91	28290.06
629.06	28243.24
629.21	28570.92
629.36	28374.31
629.51	28371.97
629.66	28388.36
629.81	28149.62
629.96	28058.34
630.11	27784.50
630.26	28072.39
630.41	27838.33
630.56	28102.81
630.71	27892.16
630.86	28112.17
631.01	28320.48
631.16	28217.50
631.31	28114.52
631.46	27887.48
631.61	28411.76
631.76	27992.81
631.91	28301.76
632.06	27850.03
632.21	27861.74
632.36	27618.32
632.51	27517.68
632.66	27817.27
632.81	28067.70
632.96	27878.12
633.10	27866.42
633.25	28116.86
633.40	27833.65
633.55	27821.95
633.70	27594.92
633.85	27681.52
634.00	27391.29
634.15	27632.36
634.30	27517.68
634.45	27573.85
634.60	27686.20
634.75	27498.95
634.90	28002.17
635.05	27852.38
635.19	27360.86
635.34	27445.12
635.49	28063.02
635.64	27665.13
635.79	27632.36
635.94	27363.20
636.09	27587.89
636.24	27215.75
636.39	27433.42
636.53	27421.72
636.68	27386.61
636.83	27393.63
636.98	27711.94
637.13	27297.67
637.28	27545.76
637.43	27592.58
637.57	27508.32
637.72	27442.78
637.87	26937.23
638.02	27021.48
638.17	27040.21
638.32	27194.68
638.46	27246.18
638.61	26869.35
638.76	27297.67
638.91	27384.27
639.06	27028.51
639.20	27505.98
639.35	27091.70
639.50	27204.05
639.65	27873.44
639.80	27250.86
639.94	27192.34
640.09	26857.65
640.24	27019.14
640.39	26721.90
640.54	26843.60
640.68	26803.82
640.83	26565.08
640.98	26635.30
641.13	26717.22
641.27	26668.06
641.42	26822.54
641.57	26979.36
641.72	26576.78
641.86	26705.51
642.01	26419.97
642.16	26771.05
642.31	26789.77
642.45	26712.53
642.60	26548.70
642.75	26284.22
642.90	26471.46
643.04	26621.25
643.19	26438.69
643.34	26347.41
643.48	26647.00
643.63	26506.57
643.78	26693.81
643.93	26789.77
644.07	26836.58
644.22	26724.24
644.37	26525.29
644.51	26714.87
644.66	26705.51
644.81	26176.55
644.95	26106.34
645.10	26075.91
645.25	26223.36
645.39	26476.14
645.54	26431.67
645.69	26242.09
645.83	26501.89
645.98	26401.24
646.13	26520.61
646.27	26483.16
646.42	26064.21
646.57	26611.89
646.71	26270.17
646.86	26415.29
647.00	26260.81
647.15	25872.28
647.30	26164.85
647.44	25979.95
647.59	26096.97
647.74	26249.11
647.88	26391.88
648.03	26162.51
648.17	26539.33
648.32	26312.30
648.47	26253.79
648.61	26120.38
648.76	26228.04
648.90	26108.68
649.05	26103.99
649.20	26080.59
649.34	25752.91
649.49	25785.68
649.63	25696.74
649.78	26010.37
649.92	26012.71
650.07	25783.34
650.21	25717.81
650.36	26015.05
650.51	25869.94
650.65	25961.22
650.80	26050.16
650.94	25689.72
651.09	25591.42
651.23	25865.26
651.38	25671.00
651.52	25476.73
651.67	25867.60
651.81	26031.44
651.96	25652.27
652.10	25638.23
652.25	25502.48
652.39	25703.76
652.54	25678.02
652.68	25661.63
652.83	25902.71
652.97	25542.27
653.12	25710.78
653.26	25450.99
653.41	25593.76
653.55	25277.79
653.70	25469.71
653.84	25434.60
653.99	25390.13
654.13	25301.19
654.27	25539.93
654.42	25560.99
654.56	25291.83
654.71	25537.59
654.85	25411.20
655.00	25493.12
655.14	25539.93
655.29	25179.48
655.43	25102.25
655.57	25256.72
655.72	25060.12
655.86	25429.92
656.01	25144.38
656.15	25069.48
656.30	25277.79
656.44	24886.92
656.58	24985.22
656.73	25069.48
656.87	25074.16
657.01	24915.00
657.16	25076.50
657.30	25242.68
657.45	25151.40
657.59	24907.98
657.73	24847.13
657.88	25252.04
658.02	24875.21
658.16	24758.19
658.31	25069.48
658.45	24943.09
658.60	24769.89
658.74	24540.52
658.88	24587.33
659.03	24816.70
659.17	24849.47
659.31	24898.62
659.46	24973.52
659.60	24802.66
659.74	24929.05
659.89	24823.72
660.03	24584.99
660.17	24418.81
660.32	24489.03
660.46	24549.88
660.60	24212.84
660.74	24121.56
660.89	24390.72
661.03	24161.35
661.17	24226.89
661.32	24322.85
661.46	24687.97
661.60	24465.62
661.74	24521.79
661.89	24313.48
662.03	24584.99
662.17	24170.71
662.31	23833.68
662.46	24210.50
662.60	24025.60
662.74	24285.40
662.88	23868.78
663.03	23658.14
663.17	24123.90
663.31	23850.06
663.45	23749.42
663.60	23817.29
663.74	23924.96
663.88	24034.96
664.02	23864.10
664.17	24039.64
664.31	23892.19
664.45	23789.20
664.59	24041.98
664.73	23637.07
664.88	23637.07
665.02	23604.30
665.16	23274.29
665.30	23807.93
665.44	23576.22
665.59	23396.00
665.73	23084.70
665.87	23145.56
666.01	23637.07
666.15	23290.67
666.29	23133.86
666.44	23143.22
666.58	23051.94
666.72	23295.35
666.86	23328.12
667.00	23452.17
667.14	23110.45
667.28	22941.93
667.43	23178.33
667.57	23157.26
667.71	22630.64
667.85	23037.89
667.99	22778.09
668.13	22764.05
668.27	22860.01
668.41	22852.99
668.56	22611.92
668.70	22628.30
668.84	22637.66
668.98	22934.91
669.12	22511.27
669.26	22373.18
669.40	22595.53
669.54	22515.95
669.68	22583.83
669.82	22469.14
669.96	22155.51
670.10	22412.97
670.25	22270.20
670.39	22286.58
670.53	22544.04
670.67	22141.47
670.81	22136.79
670.95	22129.77
671.09	21713.15
671.23	21884.01
671.37	22125.08
671.51	22045.51
671.65	22338.07
671.79	22366.16
671.93	22047.85
672.07	22064.23
672.21	21703.79
672.35	21659.32
672.49	21544.63
672.63	21675.70
672.77	21586.76
672.91	21671.02
673.05	21855.92
673.19	21479.10
673.33	21270.79
673.47	21308.24
673.61	21530.59
673.75	21694.43
673.89	21378.45
674.03	21139.72
674.17	21170.15
674.31	21284.83
674.45	21097.59
674.59	21380.79
674.73	21106.95
674.87	20936.09
675.01	21078.86
675.15	20879.92
675.29	21245.04
675.43	20856.51
675.56	20695.02
675.70	20723.10
675.84	20947.79
675.98	20123.93
676.12	20837.79
676.26	20683.31
676.40	20531.18
676.54	20631.82
676.68	20477.35
676.82	20283.08
676.96	20329.89
677.10	20388.41
677.23	19906.26
677.37	19974.13
677.51	20102.86
677.65	20175.42
677.79	19704.97
677.93	19995.20
678.07	19932.00
678.21	19782.21
678.34	19924.98
678.48	19859.45
678.62	19583.26
678.76	19714.33
678.90	19592.62
679.04	19683.91
679.18	19559.86
679.31	19676.88
679.45	19199.41
679.59	19094.09
679.73	19136.22
679.87	19108.13
680.00	18953.66
680.14	18925.57
680.28	18895.14
680.42	18864.72
680.56	18963.02
680.70	18988.77
680.83	18878.76
680.97	18838.97
681.11	18576.83
681.25	18895.14
681.39	18597.90
681.52	18420.02
681.66	18520.66
681.80	18310.01
681.94	18153.20
682.07	18352.14
682.21	18267.88
682.35	18036.17
682.49	17996.38
682.62	17752.96
682.76	18218.73
682.90	18054.89
683.04	18216.39
683.17	17963.61
683.31	17909.78
683.45	17961.27
683.59	17764.67
683.72	17727.22
683.86	17635.94
684.00	17338.69
684.13	17832.54
684.27	17729.56
684.41	17495.50
684.55	17444.01
684.68	17490.82
684.82	17158.47
684.96	17345.71
685.09	17013.35
685.23	16987.61
685.37	17090.59
685.50	17027.40
685.64	17048.46
685.78	17205.28
685.91	17111.66
686.05	16891.65
686.19	16711.42
686.32	16849.52
686.46	16407.16
686.60	16580.36
686.73	16744.19
686.87	16472.69
687.01	16320.56
687.14	16456.31
687.28	16168.42
687.42	15934.37
687.55	16025.65
687.69	16042.03
687.82	16198.85
687.96	15962.45
688.10	15775.21
688.23	15815.00
688.37	15995.22
688.50	15896.92
688.64	15831.38
688.78	15803.30
688.91	15564.56
689.05	15569.24
689.18	15681.59
689.32	15199.44
689.46	15208.80
689.59	15506.05
689.73	15391.36
689.86	15344.55
690.00	15311.78
690.13	15267.31
690.27	15077.73
690.41	15119.86
690.54	15089.43
690.68	15534.14
690.81	15042.62
690.95	15026.24
691.08	14946.66
691.22	15159.65
691.35	14860.06
691.49	14782.82
691.62	14871.76
691.76	14633.03
691.89	14478.55
692.03	14410.68
692.16	14104.07
692.30	14443.45
692.43	14485.58
692.57	14078.32
692.70	14202.37
692.84	14244.50
692.97	14176.62
693.11	14125.13
693.24	14012.79
693.38	13893.42
693.51	13930.87
693.65	14073.64
693.78	13785.76
693.92	13694.47
694.05	13895.76
694.19	13453.40
694.32	13694.47
694.45	13422.97
694.59	13249.77
694.72	13589.15
694.86	13327.01
694.99	13067.21
695.13	13177.22
695.26	13266.16
695.39	13172.54
695.53	12992.31
695.66	13043.81
695.80	12830.82
695.93	13060.19
696.07	12901.03
696.20	12968.91
696.33	12894.01
696.47	13231.05
696.60	12589.74
696.73	12615.49
696.87	12819.11
697.00	12587.40
697.14	12222.28
697.27	12320.58
697.40	12423.56
697.54	12159.08
697.67	12255.04
697.80	12327.60
697.94	12135.68
698.07	12166.10
698.21	11990.56
698.34	12112.27
698.47	12044.40
698.61	12217.60
698.74	12049.08
698.87	12147.38
699.01	11939.07
699.14	11784.60
699.27	11925.03
699.40	11903.96
699.54	11534.16
699.67	11520.12
699.80	11810.34
699.94	11555.22
700.07	11482.67
700.20	11335.21
700.34	11211.17
700.47	11190.10
700.60	11253.30
700.73	11421.81
700.87	11239.25
701.00	11105.84
701.13	10909.24
701.26	11061.37
701.40	11061.37
701.53	11063.71
701.66	10707.95
701.79	10834.34
701.93	10787.53
702.06	10619.01
702.19	10537.09
702.32	10583.90
702.46	10452.83
702.59	10633.05
702.72	10422.41
702.85	10361.55
702.99	10420.06
703.12	10441.13
703.25	10249.21
703.38	10186.01
703.51	10363.89
703.65	10272.61
703.78	10164.95
703.91	10279.63
704.04	10059.62
704.17	10235.16
704.31	10202.40
704.44	9909.83
704.57	9776.42
704.70	9839.61
704.83	9741.31
704.96	9839.61
705.10	9685.14
705.23	9593.86
>>>>>End Processed Spectral Data<<<<<
