SpectraSuite Data File
++++++++++++++++++++++++++++++++++++
Date: Fri Oct 18 13:57:56 GMT-05:00 2013
User: bianchi
Dark Spectrum Present: No
Reference Spectrum Present: No
Number of Sampled Component Spectra: 1
Spectrometers: USB2+H05261
Integration Time (usec): 50000 (USB2+H05261)
Spectra Averaged: 1 (USB2+H05261)
Boxcar Smoothing: 0 (USB2+H05261)
Correct for Electrical Dark: No (USB2+H05261)
Strobe/Lamp Enabled: No (USB2+H05261)
Correct for Detector Non-linearity: No (USB2+H05261)
Correct for Stray Light: No (USB2+H05261)
Number of Pixels in Processed Spectrum: 2048
>>>>>Begin Processed Spectral Data<<<<<
365.73	0.00
365.92	0.00
366.12	0.00
366.32	0.00
366.52	0.00
366.72	0.00
366.91	0.00
367.11	0.00
367.31	0.00
367.51	0.00
367.70	0.00
367.90	0.00
368.10	0.00
368.30	0.00
368.49	0.00
368.69	0.00
368.89	0.00
369.09	0.00
369.28	0.00
369.48	0.00
369.68	0.00
369.87	0.00
370.07	0.00
370.27	0.00
370.47	0.00
370.66	93.62
370.86	142.77
371.06	35.11
371.25	203.63
371.45	124.05
371.65	194.26
371.84	196.60
372.04	149.79
372.24	229.37
372.44	196.60
372.63	133.41
372.83	152.13
373.03	255.12
373.22	201.29
373.42	180.22
373.62	180.22
373.81	205.97
374.01	222.35
374.21	271.50
374.40	236.39
374.60	161.50
374.79	187.24
374.99	224.69
375.19	294.91
375.38	257.46
375.58	264.48
375.78	255.12
375.97	386.19
376.17	390.87
376.37	278.52
376.56	241.08
376.76	304.27
376.95	269.16
377.15	231.71
377.35	306.61
377.54	315.97
377.74	271.50
377.93	271.50
378.13	285.55
378.33	278.52
378.52	325.33
378.72	393.21
378.91	306.61
379.11	299.59
379.31	358.10
379.50	299.59
379.70	341.72
379.89	369.80
380.09	294.91
380.28	362.78
380.48	341.72
380.68	369.80
380.87	255.12
381.07	306.61
381.26	318.31
381.46	304.27
381.65	322.99
381.85	351.08
382.04	306.61
382.24	344.06
382.43	327.68
382.63	327.68
382.83	376.83
383.02	311.29
383.22	285.55
383.41	395.55
383.61	388.53
383.80	320.65
384.00	353.42
384.19	414.27
384.39	416.62
384.58	447.04
384.78	365.12
384.97	330.02
385.17	416.62
385.36	374.49
385.56	447.04
385.75	442.36
385.95	425.98
386.14	414.27
386.34	421.30
386.53	421.30
386.72	383.85
386.92	386.19
387.11	451.72
387.31	393.21
387.50	451.72
387.70	444.70
387.89	379.17
388.09	421.30
388.28	465.77
388.48	531.30
388.67	418.96
388.86	456.40
389.06	465.77
389.25	463.43
389.45	517.26
389.64	505.56
389.84	486.83
390.03	528.96
390.22	493.85
390.42	498.53
390.61	447.04
390.81	482.15
391.00	519.60
391.19	552.37
391.39	540.66
391.58	451.72
391.78	512.58
391.97	531.30
392.16	603.86
392.36	589.82
392.55	582.79
392.75	566.41
392.94	603.86
393.13	620.24
393.33	552.37
393.52	587.47
393.71	582.79
393.91	507.90
394.10	587.47
394.29	641.31
394.49	636.63
394.68	671.73
394.88	636.63
395.07	671.73
395.26	575.77
395.46	596.84
395.65	624.92
395.84	599.18
396.04	627.26
396.23	613.22
396.42	624.92
396.62	690.46
396.81	638.97
397.00	610.88
397.19	741.95
397.39	737.27
397.58	650.67
397.77	737.27
397.97	650.67
398.16	779.40
398.35	784.08
398.55	718.54
398.74	774.72
398.93	767.70
399.12	636.63
399.32	786.42
399.51	739.61
399.70	786.42
399.90	779.40
400.09	802.80
400.28	730.25
400.47	814.51
400.67	791.10
400.86	842.59
401.05	812.17
401.24	772.38
401.44	779.40
401.63	835.57
401.82	880.04
402.01	786.42
402.21	889.40
402.40	894.08
402.59	858.98
402.78	940.90
402.97	875.36
403.17	926.85
403.36	912.81
403.55	861.32
403.74	905.79
403.93	954.94
404.13	945.58
404.32	964.30
404.51	1083.67
404.70	954.94
404.89	952.60
405.09	936.21
405.28	959.62
405.47	954.94
405.66	1025.15
405.85	1022.81
406.05	940.90
406.24	983.02
406.43	1095.37
406.62	983.02
406.81	1177.29
407.00	1109.41
407.20	1053.24
407.39	1041.54
407.58	1090.69
407.77	1137.50
407.96	1160.91
408.15	1132.82
408.34	1144.52
408.54	1149.20
408.73	1083.67
408.92	1170.27
409.11	1074.31
409.30	1114.10
409.49	1184.31
409.68	1233.46
409.87	1256.87
410.07	1226.44
410.26	1214.74
410.45	1205.38
410.64	1252.19
410.83	1214.74
411.02	1170.27
411.21	1261.55
411.40	1352.83
411.59	1359.85
411.78	1280.27
411.98	1310.70
412.17	1371.55
412.36	1380.92
412.55	1320.06
412.74	1327.08
412.93	1275.59
413.12	1432.41
413.31	1430.07
413.50	1427.73
413.69	1460.49
413.88	1343.47
414.07	1507.30
414.26	1544.75
414.45	1488.58
414.64	1521.35
414.83	1572.84
415.02	1575.18
415.22	1549.43
415.41	1600.93
415.60	1680.50
415.79	1617.31
415.98	1631.35
416.17	1685.19
416.36	1629.01
416.55	1699.23
416.74	1673.48
416.93	1713.27
417.12	1706.25
417.31	1722.63
417.50	1757.74
417.69	1804.55
417.88	1811.57
418.07	1825.62
418.26	1753.06
418.45	1809.23
418.64	1865.41
418.83	1724.97
419.02	1809.23
419.21	1846.68
419.39	1914.56
419.58	1891.15
419.77	1820.94
419.96	1795.19
420.15	1863.07
420.34	1891.15
420.53	1856.04
420.72	1940.30
420.91	1980.09
421.10	1907.54
421.29	2008.18
421.48	2076.06
421.67	2022.22
421.86	2005.84
422.05	2054.99
422.24	2033.93
422.43	1996.48
422.61	2085.42
422.80	2008.18
422.99	2038.61
423.18	2155.63
423.37	2062.01
423.56	2099.46
423.75	2064.35
423.94	1973.07
424.13	1898.17
424.32	1982.43
424.50	2125.21
424.69	1942.64
424.88	2132.23
425.07	2022.22
425.26	2026.90
425.45	2045.63
425.64	2136.91
425.83	2073.71
426.01	2165.00
426.20	2097.12
426.39	2251.60
426.58	2040.95
426.77	2057.33
426.96	2160.31
427.15	2122.87
427.33	2253.94
427.52	2071.37
427.71	2153.29
427.90	2188.40
428.09	2162.66
428.28	2279.68
428.46	2291.38
428.65	2279.68
428.84	2363.94
429.03	2370.96
429.22	2237.55
429.40	2328.83
429.59	2354.58
429.78	2122.87
429.97	2052.65
430.16	2232.87
430.34	2464.58
430.53	2431.82
430.72	2396.71
430.91	2326.49
431.10	2401.39
431.28	2513.74
431.47	2438.84
431.66	2546.50
431.85	2581.61
432.03	2513.74
432.22	2642.46
432.41	2537.14
432.60	2520.76
432.79	2551.18
432.97	2583.95
433.16	2527.78
433.35	2471.61
433.54	2572.25
433.72	2602.68
433.91	2588.63
434.10	2504.37
434.28	2499.69
434.47	2572.25
434.66	2555.86
434.85	2619.06
435.03	2792.26
435.22	2736.09
435.41	2656.51
435.59	2752.47
435.78	2651.83
435.97	2827.37
436.16	2740.77
436.34	2759.49
436.53	2750.13
436.72	2729.06
436.90	2771.19
437.09	2822.69
437.28	2698.64
437.46	2846.09
437.65	2810.98
437.84	2897.58
438.02	2822.69
438.21	2782.90
438.40	2855.45
438.58	3016.95
438.77	3089.51
438.96	2937.37
439.14	3047.38
439.33	3028.65
439.52	3061.42
439.70	2977.16
439.89	3080.14
440.08	3108.23
440.26	3213.56
440.45	3178.45
440.63	3239.30
440.82	3234.62
441.01	3180.79
441.19	3293.13
441.38	3253.34
441.57	3274.41
441.75	3346.97
441.94	3339.94
442.12	3398.46
442.31	3506.12
442.50	3463.99
442.68	3492.08
442.87	3412.50
443.05	3562.30
443.24	3627.83
443.43	3475.70
443.61	3440.59
443.80	3574.00
443.98	3499.10
444.17	3246.32
444.35	3386.76
444.54	3676.98
444.73	3585.70
444.91	3555.27
445.10	3492.08
445.28	3613.79
445.47	3531.87
445.65	3564.64
445.84	3529.53
446.02	3461.65
446.21	3513.14
446.39	3358.67
446.58	3545.91
446.77	3613.79
446.95	3562.30
447.14	3562.30
447.32	3721.45
447.51	3644.21
447.69	3686.34
447.88	3728.47
448.06	3623.15
448.25	3660.60
448.43	3527.19
448.62	3691.02
448.80	3552.93
448.99	3885.29
449.17	3557.61
449.36	3698.05
449.54	3723.79
449.73	3819.75
449.91	3829.12
450.10	3941.46
450.28	3791.67
450.46	3705.07
450.65	3784.65
450.83	3939.12
451.02	3939.12
451.20	3847.84
451.39	4098.28
451.57	3803.37
451.76	3817.41
451.94	4070.19
452.13	3983.59
452.31	3880.61
452.49	3904.01
452.68	4131.05
452.86	3913.38
453.05	3976.57
453.23	4002.32
453.42	4058.49
453.60	4058.49
453.78	4168.49
453.97	4072.53
454.15	4028.06
454.34	4088.92
454.52	4135.73
454.70	4131.05
454.89	4203.60
455.07	4145.09
455.26	4191.90
455.44	4168.49
455.62	4173.18
455.81	4215.30
455.99	4234.03
456.17	4278.50
456.36	4402.55
456.54	4379.14
456.73	4311.27
456.91	4348.72
457.09	4500.85
457.28	4652.98
457.46	4381.48
457.64	4484.47
457.83	4521.92
458.01	4468.08
458.19	4423.61
458.38	4432.97
458.56	4683.41
458.74	4493.83
458.93	4578.09
459.11	4479.79
459.29	4493.83
459.48	4664.69
459.66	4449.36
459.84	4585.11
460.03	4746.61
460.21	4786.40
460.39	4561.70
460.57	4507.87
460.76	4723.20
460.94	4627.24
461.12	4814.48
461.31	4781.71
461.49	4777.03
461.67	4748.95
461.85	5036.83
462.04	4631.92
462.22	5034.49
462.40	4917.47
462.59	4959.60
462.77	4994.70
462.95	4975.98
463.13	4983.00
463.32	4975.98
463.50	4917.47
463.68	5015.77
463.86	4990.02
464.05	5032.15
464.23	4968.96
464.41	5034.49
464.59	5071.94
464.78	5076.62
464.96	4999.38
465.14	5041.51
465.32	5390.25
465.50	5203.01
465.69	5181.95
465.87	5088.32
466.05	5060.24
466.23	5123.43
466.41	5057.90
466.60	5233.44
466.78	5057.90
466.96	5277.91
467.14	5226.42
467.32	5273.23
467.51	5284.93
467.69	5343.44
467.87	5289.61
468.05	5214.71
468.23	5212.37
468.41	5247.48
468.60	5291.95
468.78	5406.64
468.96	5203.01
469.14	5451.11
469.32	5542.39
469.50	5390.25
469.69	5523.66
469.87	5558.77
470.05	5703.89
470.23	5659.42
470.41	5692.18
470.59	5708.57
470.77	5577.50
470.95	5664.10
471.14	5673.46
471.32	5631.33
471.50	5907.51
471.68	5806.87
471.86	5734.31
472.04	5799.85
472.22	6015.18
472.40	5755.38
472.58	5961.34
472.77	5912.19
472.95	6101.78
473.13	6181.35
473.31	6076.03
473.49	5858.36
473.67	6026.88
473.85	6033.90
474.03	6171.99
474.21	6150.93
474.39	6270.30
474.57	6181.35
474.75	6296.04
474.93	6413.07
475.12	6413.07
475.30	6480.94
475.48	6459.88
475.66	6338.17
475.84	6628.40
476.02	6534.78
476.20	6420.09
476.38	6871.81
476.56	6832.02
476.74	6841.39
476.92	6729.04
477.10	6843.73
477.28	6810.96
477.46	6974.80
477.64	6864.79
477.82	6958.41
478.00	7297.79
478.18	7206.51
478.36	7267.36
478.54	7393.75
478.72	7382.05
478.90	7489.71
479.08	7197.15
479.26	7531.84
479.44	7412.48
479.62	7676.96
479.80	7747.17
479.98	7702.70
480.16	7733.13
480.34	7878.24
480.52	7875.90
480.70	7974.21
480.88	7772.92
481.06	8091.23
481.24	7943.78
481.41	8009.31
481.59	8435.29
481.77	8367.42
481.95	8395.50
482.13	8231.66
482.31	8168.47
482.49	8526.57
482.67	8561.68
482.85	8744.24
483.03	8922.12
483.21	8919.78
483.39	8856.59
483.57	8922.12
483.74	8898.72
483.92	8966.59
484.10	9083.62
484.28	9224.05
484.46	9308.31
484.64	9544.70
484.82	9284.91
485.00	9315.33
485.18	9607.90
485.35	9954.30
485.53	9741.31
485.71	9783.44
485.89	9958.98
486.07	10050.26
486.25	9984.73
486.43	9898.13
486.61	10106.43
486.78	10052.60
486.96	10256.23
487.14	10340.49
487.32	10326.44
487.50	10345.17
487.68	10541.77
487.85	10771.15
488.03	10913.92
488.21	10911.58
488.39	11007.54
488.57	10960.73
488.75	11098.82
488.92	11199.46
489.10	11445.22
489.28	11077.76
489.46	11384.37
489.64	11613.74
489.81	11683.95
489.99	11735.45
490.17	11632.46
490.35	11702.68
490.53	11953.12
490.70	12006.95
490.88	12105.25
491.06	12269.09
491.24	12372.07
491.41	12081.85
491.59	12257.39
491.77	12411.86
491.95	12556.97
492.13	12585.06
492.30	12575.70
492.48	12739.54
492.66	12760.60
492.84	12774.64
493.01	13095.30
493.19	12999.34
493.37	13198.28
493.54	13149.13
493.72	13680.43
493.90	13277.86
494.08	13399.57
494.25	13582.13
494.43	13476.80
494.61	13528.30
494.79	13891.08
494.96	13811.50
495.14	13790.44
495.32	14185.99
495.49	13727.24
495.67	14207.05
495.85	14366.21
496.02	14310.04
496.20	14401.32
496.38	14373.23
496.55	14579.20
496.73	14909.21
496.91	14815.59
497.09	14874.10
497.26	14878.79
497.44	14745.38
497.62	15084.75
497.79	15023.90
497.97	15171.35
498.14	15276.68
498.32	15349.23
498.50	15225.18
498.67	15496.69
498.85	15503.71
499.03	15531.80
499.20	15772.87
499.38	15669.89
499.56	15836.06
499.73	15594.99
499.91	15662.86
500.08	16091.18
500.26	15838.41
500.44	15978.84
500.61	15777.55
500.79	16067.78
500.97	16233.96
501.14	16388.43
501.32	16313.53
501.49	16257.36
501.67	16327.58
501.84	16718.45
502.02	16683.34
502.20	16638.87
502.37	16912.71
502.55	16886.97
502.72	16744.19
502.90	16973.56
503.07	16650.57
503.25	16938.46
503.43	16807.39
503.60	17057.82
503.78	16978.25
503.95	17444.01
504.13	17329.33
504.30	17247.41
504.48	17158.47
504.65	17238.05
504.83	17537.63
505.01	18003.40
505.18	17441.67
505.36	17956.59
505.53	17497.84
505.71	17703.81
505.88	17923.82
506.06	17638.28
506.23	17869.99
506.41	17790.41
506.58	18277.24
506.76	18033.83
506.93	17954.25
507.11	18087.66
507.28	17902.76
507.46	18321.71
507.63	18373.21
507.81	18548.75
507.98	18593.22
508.16	18642.37
508.33	18405.97
508.50	18616.62
508.68	18787.48
508.85	18939.62
509.03	18773.44
509.20	18965.36
509.38	19225.16
509.55	18993.45
509.73	19246.23
509.90	19082.39
510.08	19012.17
510.25	19007.49
510.42	19117.50
510.60	19421.77
510.77	19335.17
510.95	19197.07
511.12	19304.74
511.30	19389.00
511.47	19587.94
511.64	19630.07
511.82	19349.21
511.99	19594.96
512.17	19943.70
512.34	19707.31
512.51	19927.32
512.69	19756.46
512.86	20011.58
513.04	20217.55
513.21	20217.55
513.38	20259.68
513.56	20002.22
513.73	20102.86
513.90	20156.69
514.08	20004.56
514.25	20627.14
514.43	20163.72
514.60	20697.36
514.77	20664.59
514.95	20783.96
515.12	20411.81
515.29	20561.61
515.47	20404.79
515.64	20828.43
515.81	20987.58
515.99	20931.41
516.16	20987.58
516.33	20828.43
516.51	21083.55
516.68	20975.88
516.85	20947.79
517.03	21212.28
517.20	21207.59
517.37	21495.48
517.54	21270.79
517.72	21401.86
517.89	21326.96
518.06	21223.98
518.24	21439.31
518.41	21462.71
518.58	21530.59
518.75	21605.49
518.93	21968.27
519.10	21724.85
519.27	22258.49
519.45	21692.08
519.62	21792.73
519.79	21628.89
519.96	21937.84
520.14	21963.59
520.31	21898.05
520.48	22277.22
520.65	22209.34
520.83	22340.41
521.00	22398.93
521.17	22309.99
521.34	22253.81
521.52	22246.79
521.69	22558.08
521.86	22471.48
522.03	22672.77
522.20	22728.94
522.38	22663.41
522.55	22569.79
522.72	22735.96
522.89	22382.54
523.07	23187.69
523.24	22888.10
523.41	22920.87
523.58	22740.64
523.75	22824.90
523.92	22871.72
524.10	23103.43
524.27	23180.67
524.44	23248.54
524.61	23161.94
524.78	23246.20
524.96	23325.78
525.13	23625.37
525.30	23566.85
525.47	23498.98
525.64	23379.61
525.81	23496.64
525.98	23594.94
526.16	23452.17
526.33	23637.07
526.50	23742.39
526.67	23517.70
526.84	23613.66
527.01	23768.14
527.18	24217.52
527.36	23910.91
527.53	24023.26
527.70	24170.71
527.87	24496.05
528.04	23826.65
528.21	24182.42
528.38	24013.90
528.55	24177.73
528.72	24350.93
528.89	24444.56
529.07	24397.74
529.24	24479.66
529.41	24657.54
529.58	24512.43
529.75	24453.92
529.92	24533.50
530.09	24629.46
530.26	24589.67
530.43	24411.79
530.60	24283.06
530.77	24547.54
530.94	24863.51
531.11	24767.55
531.28	24629.46
531.46	24711.38
531.63	24896.28
531.80	25060.12
531.97	25081.18
532.14	24858.83
532.31	24989.90
532.48	24741.80
532.65	25135.01
532.82	24950.11
532.99	25181.82
533.16	25184.16
533.33	25104.59
533.50	25544.61
533.67	25385.45
533.84	25551.63
534.01	25247.36
534.18	25216.93
534.35	25348.00
534.52	25752.91
534.69	25465.03
534.86	25663.97
535.03	25603.12
535.20	25699.08
535.37	25453.33
535.54	25715.47
535.71	25818.45
535.88	25792.70
536.05	25696.74
536.22	25902.71
536.38	25923.77
536.55	26033.78
536.72	25820.79
536.89	25399.49
537.06	25928.45
537.23	26019.74
537.40	25949.52
537.57	25982.29
537.74	26038.46
537.91	26228.04
538.08	26450.39
538.25	26452.73
538.42	25891.01
538.59	26527.63
538.75	26019.74
538.92	26452.73
539.09	26167.19
539.26	26684.45
539.43	26698.49
539.60	26417.63
539.77	26522.95
539.94	26408.26
540.11	26532.31
540.28	26707.85
540.44	26335.71
540.61	26466.78
540.78	26565.08
540.95	26279.54
541.12	26586.15
541.29	26778.07
541.46	26661.04
541.62	26529.97
541.79	26941.91
541.96	26529.97
542.13	26789.77
542.30	27091.70
542.47	27250.86
542.63	26934.88
542.80	27096.38
542.97	27513.00
543.14	27754.07
543.31	26897.44
543.48	27215.75
543.64	27744.71
543.81	27482.57
543.98	27599.60
544.15	27494.27
544.32	27779.82
544.48	27758.75
544.65	27520.02
544.82	27641.73
544.99	27424.06
545.16	27384.27
545.32	27908.55
545.49	27946.00
545.66	27702.58
545.83	27828.97
546.00	28208.14
546.16	27887.48
546.33	27669.81
546.50	27454.48
546.67	27892.16
546.83	27831.31
547.00	28158.99
547.17	27910.89
547.34	28121.54
547.50	28383.68
547.67	28474.96
547.84	28219.84
548.00	28720.71
548.17	27936.63
548.34	28177.71
548.51	28060.68
548.67	28322.82
548.84	28512.41
549.01	28219.84
549.18	28467.94
549.34	28437.51
549.51	28393.04
549.68	28149.62
549.84	28402.40
550.01	28430.49
550.18	28634.11
550.34	28210.48
550.51	28645.82
550.68	28730.08
550.84	28467.94
551.01	28959.45
551.18	28184.73
551.34	28446.87
551.51	28374.31
551.68	28669.22
551.84	29139.67
552.01	29034.35
552.18	28879.87
552.34	28657.52
552.51	28957.11
552.68	29125.63
552.84	29067.11
553.01	28996.90
553.18	28922.00
553.34	29064.77
553.51	28877.53
553.67	29053.07
553.84	29322.23
554.01	29041.37
554.17	29050.73
554.34	29333.93
554.51	29139.67
554.67	28978.17
554.84	29273.08
555.00	29427.56
555.17	29277.76
555.33	29289.46
555.50	29067.11
555.67	29226.27
555.83	29275.42
556.00	29275.42
556.16	29256.70
556.33	29198.18
556.50	29425.22
556.66	29500.11
556.83	29642.88
556.99	29734.17
557.16	29708.42
557.32	29647.57
557.49	29965.88
557.65	29582.03
557.82	29553.94
557.98	29525.86
558.15	29439.26
558.32	29752.89
558.48	29942.47
558.65	30003.33
558.81	29951.84
558.98	29567.99
559.14	29830.13
559.31	29532.88
559.47	30359.09
559.64	29652.25
559.80	29958.86
559.97	29788.00
560.13	29860.55
560.30	29935.45
560.46	29656.93
560.63	29982.26
560.79	29563.31
560.96	30333.34
561.12	29977.58
561.29	29340.96
561.45	29935.45
561.61	29752.89
561.78	30045.46
561.94	30089.93
562.11	30562.72
562.27	30188.23
562.44	29858.21
562.60	30012.69
562.77	30022.05
562.93	30120.35
563.10	30419.94
563.26	30101.63
563.42	30684.42
563.59	30265.47
563.75	30471.43
563.92	30562.72
564.08	30260.79
564.24	30391.86
564.41	30066.52
564.57	29965.88
564.74	30202.27
564.90	30433.99
565.07	30588.46
565.23	30824.86
565.39	30583.78
565.56	30560.37
565.72	30300.58
565.88	30422.28
566.05	30373.13
566.21	30689.10
566.38	30349.73
566.54	30216.32
566.70	30485.48
566.87	30410.58
567.03	30845.92
567.19	30859.96
567.36	30347.39
567.52	31040.18
567.68	30881.03
567.85	30321.64
568.01	30731.23
568.17	30494.84
568.34	30387.18
568.50	30665.70
568.66	30632.93
568.83	30785.07
568.99	30618.89
569.15	30536.97
569.32	30752.30
569.48	30504.20
569.64	30883.37
569.81	30639.95
569.97	30682.08
570.13	31243.81
570.30	30618.89
570.46	30773.36
570.62	30785.07
570.78	30614.21
570.95	30309.94
571.11	30817.83
571.27	30267.81
571.43	30726.55
571.60	30934.86
571.76	30778.04
571.92	30654.00
572.09	30838.90
572.25	30969.97
572.41	30862.30
572.57	30745.28
572.74	30962.95
572.90	30614.21
573.06	30955.93
573.22	30981.67
573.38	30993.37
573.55	31035.50
573.71	31005.08
573.87	31143.17
574.03	30991.03
574.20	30782.73
574.36	30710.17
574.52	31030.82
574.68	30824.86
574.84	31087.00
575.01	30787.41
575.17	31199.34
575.33	30981.67
575.49	31250.83
575.65	31065.93
575.82	31154.87
575.98	31068.27
576.14	30976.99
576.30	30871.67
576.46	31019.12
576.62	30890.39
576.79	30986.35
576.95	31012.10
577.11	30995.71
577.27	31360.84
577.43	31077.63
577.59	30974.65
577.75	31016.78
577.92	30944.22
578.08	30747.62
578.24	31019.12
578.40	31119.76
578.56	30845.92
578.72	31278.92
578.88	31047.21
579.04	31030.82
579.21	31213.38
579.37	31543.40
579.53	31178.28
579.69	30895.07
579.85	31089.34
580.01	30857.62
580.17	30771.02
580.33	31075.29
580.49	31466.16
580.65	31290.62
580.82	31211.04
580.98	31061.25
581.14	31037.84
581.30	30976.99
581.46	31501.27
581.62	31332.75
581.78	30822.51
581.94	31292.96
582.10	30993.37
582.26	31370.20
582.42	31159.55
582.58	31435.74
582.74	31421.69
582.90	31061.25
583.06	31409.99
583.22	31321.05
583.38	31503.61
583.54	31175.94
583.70	31531.70
583.86	31159.55
584.02	31173.60
584.18	31690.85
584.34	31501.27
584.50	31665.11
584.66	31365.52
584.82	31372.54
584.98	31428.71
585.14	31391.26
585.30	30852.94
585.46	31138.49
585.62	31274.24
585.78	31349.14
585.94	30939.54
586.10	31438.08
586.26	31580.85
586.42	31409.99
586.58	31454.46
586.74	31358.50
586.90	31145.51
587.06	31288.28
587.22	31452.12
587.38	31304.67
587.54	31557.44
587.70	31653.40
587.86	31515.31
588.02	31346.79
588.18	31599.57
588.34	31906.18
588.49	31466.16
588.65	30883.37
588.81	31531.70
588.97	31473.18
589.13	31225.09
589.29	31639.36
589.45	31351.48
589.61	31491.91
589.77	32224.50
589.93	31161.89
590.08	31400.63
590.24	31924.91
590.40	31796.18
590.56	31510.63
590.72	31489.57
590.88	31564.46
591.04	31515.31
591.20	31672.13
591.35	32149.60
591.51	31747.03
591.67	31798.52
591.83	32030.23
591.99	31625.32
592.15	31812.56
592.31	31735.32
592.46	31447.44
592.62	31702.56
592.78	31543.40
592.94	31580.85
593.10	31611.28
593.26	31655.75
593.41	31800.86
593.57	31828.95
593.73	31480.21
593.89	31899.16
594.05	31644.04
594.20	31466.16
594.36	31622.98
594.52	31730.64
594.68	31639.36
594.84	31952.99
594.99	32091.09
595.15	31985.76
595.31	31819.58
595.47	31906.18
595.62	32013.85
595.78	31990.44
595.94	31681.49
596.10	31754.05
596.25	31651.06
596.41	31653.40
596.57	31267.22
596.73	31913.20
596.88	31791.50
597.04	31910.86
597.20	31929.59
597.36	32053.64
597.51	32170.66
597.67	31723.62
597.83	31639.36
597.99	31786.82
598.14	31873.42
598.30	31952.99
598.46	31899.16
598.61	32025.55
598.77	31660.43
598.93	31819.58
599.09	31931.93
599.24	32283.01
599.40	31709.58
599.56	32201.09
599.71	31800.86
599.87	31985.76
600.03	31693.19
600.18	31924.91
600.34	32025.55
600.50	31885.12
600.65	32032.57
600.81	32292.37
600.97	32259.60
601.12	32107.47
601.28	32121.51
601.44	32074.70
601.59	32020.87
601.75	31842.99
601.91	32006.83
602.06	32196.41
602.22	31859.37
602.37	31524.68
602.53	32119.17
602.69	32311.10
602.84	32161.30
603.00	31894.48
603.16	32142.58
603.31	32018.53
603.47	31960.02
603.62	31697.88
603.78	32086.40
603.94	31630.00
604.09	32149.60
604.25	31880.44
604.40	31775.11
604.56	32084.06
604.71	32112.15
604.87	32252.58
605.03	32116.83
605.18	32065.34
605.34	32063.00
605.49	32039.59
605.65	32095.77
605.80	31810.22
605.96	31768.09
606.12	31988.10
606.27	31992.78
606.43	31512.97
606.58	31981.08
606.74	31845.33
606.89	31950.65
607.05	32119.17
607.20	32088.74
607.36	31924.91
607.51	31826.60
607.67	31714.26
607.82	31744.69
607.98	31824.26
608.13	31555.10
608.29	31887.46
608.44	31618.30
608.60	31819.58
608.75	31665.11
608.91	31854.69
609.06	31672.13
609.22	31695.53
609.37	31438.08
609.53	31580.85
609.68	31667.45
609.84	31433.39
609.99	31627.66
610.15	31489.57
610.30	31328.07
610.46	31529.36
610.61	31777.45
610.76	31779.79
610.92	31761.07
611.07	31601.91
611.23	31400.63
611.38	31367.86
611.54	31599.57
611.69	31491.91
611.84	31538.72
612.00	31536.38
612.15	31454.46
612.31	32147.26
612.46	31585.53
612.62	31637.02
612.77	31461.48
612.92	31255.51
613.08	31747.03
613.23	31627.66
613.39	31578.51
613.54	31094.02
613.69	31180.62
613.85	31154.87
614.00	31220.41
614.15	31281.26
614.31	31094.02
614.46	31566.81
614.62	31398.29
614.77	31838.31
614.92	31288.28
615.08	31587.87
615.23	31377.22
615.38	31393.61
615.54	31250.83
615.69	31257.85
615.84	30789.75
616.00	31267.22
616.15	31157.21
616.30	31358.50
616.46	31302.32
616.61	31243.81
616.76	31232.11
616.92	31005.08
617.07	31370.20
617.22	30965.29
617.37	30803.79
617.53	30869.33
617.68	31194.66
617.83	30813.15
617.99	30775.70
618.14	31065.93
618.29	31065.93
618.45	31108.06
618.60	31131.47
618.75	30759.32
618.90	30768.68
619.06	30948.90
619.21	30976.99
619.36	31084.65
619.51	30380.15
619.67	30471.43
619.82	30534.63
619.97	30998.06
620.12	30651.66
620.28	30389.52
620.43	30761.66
620.58	31227.43
620.73	30988.69
620.89	30642.29
621.04	31140.83
621.19	31007.42
621.34	30609.53
621.49	30536.97
621.65	30677.40
621.80	30714.85
621.95	30361.43
622.10	30363.77
622.25	30829.54
622.41	30342.70
622.56	30705.49
622.71	30979.33
622.86	30384.83
623.01	30614.21
623.16	30628.25
623.32	30281.85
623.47	30656.34
623.62	30506.54
623.77	30480.80
623.92	30511.22
624.07	30312.28
624.23	30501.86
624.38	30972.31
624.53	30614.21
624.68	30345.05
624.83	30670.38
624.98	30511.22
625.13	30022.05
625.29	30373.13
625.44	30441.01
625.59	29933.11
625.74	30132.06
625.89	30221.00
626.04	30157.80
626.19	29898.00
626.34	29776.30
626.49	29951.84
626.65	30316.96
626.80	30256.11
626.95	30272.49
627.10	30326.32
627.25	30244.40
627.40	30047.80
627.55	29921.41
627.70	29694.38
627.85	29837.15
628.00	29813.74
628.15	29851.19
628.30	29703.74
628.45	29778.64
628.60	29462.66
628.76	29935.45
628.91	29993.97
629.06	29839.49
629.21	29872.26
629.36	30026.73
629.51	29567.99
629.66	30089.93
629.81	29661.61
629.96	29537.56
630.11	29406.49
630.26	29448.62
630.41	29277.76
630.56	29355.00
630.71	29715.44
630.86	29589.05
631.01	29387.77
631.16	29844.17
631.31	29532.88
631.46	29408.83
631.61	29736.51
631.76	29427.56
631.91	29165.42
632.06	29209.89
632.21	29294.14
632.36	29558.63
632.51	29408.83
632.66	29228.61
632.81	29113.92
632.96	29593.73
633.10	29060.09
633.25	29214.57
633.40	29670.97
633.55	29476.71
633.70	29113.92
633.85	29032.00
634.00	29280.10
634.15	29369.04
634.30	29057.75
634.45	28879.87
634.60	28950.09
634.75	29303.51
634.90	28973.49
635.05	29268.40
635.19	29352.66
635.34	29408.83
635.49	29177.12
635.64	29167.76
635.79	29111.58
635.94	29331.59
636.09	29043.71
636.24	28961.79
636.39	28711.35
636.53	28875.19
636.68	28727.74
636.83	28835.40
636.98	28994.56
637.13	28793.27
637.28	28863.49
637.43	29111.58
637.57	28809.65
637.72	28814.34
637.87	29032.00
638.02	28865.83
638.17	28847.10
638.32	28549.85
638.46	28697.31
638.61	28350.91
638.76	28322.82
638.91	28533.47
639.06	28570.92
639.20	28613.05
639.35	28332.18
639.50	28467.94
639.65	28774.55
639.80	28652.84
639.94	28821.36
640.09	28547.51
640.24	28613.05
640.39	28233.88
640.54	28023.23
640.68	28147.28
640.83	28268.99
640.98	28292.40
641.13	28332.18
641.27	28266.65
641.42	28453.89
641.57	28313.46
641.72	28067.70
641.86	28205.80
642.01	28109.83
642.16	27955.36
642.31	27908.55
642.45	28390.70
642.60	27938.97
642.75	27831.31
642.90	28343.89
643.04	27927.27
643.19	28280.69
643.34	28046.64
643.48	28123.88
643.63	27957.70
643.78	28161.33
643.93	28226.86
644.07	28009.19
644.22	28126.22
644.37	28091.11
644.51	27929.61
644.66	27964.72
644.81	27630.02
644.95	27807.90
645.10	27623.00
645.25	27964.72
645.39	27784.50
645.54	27557.47
645.69	27714.28
645.83	28105.15
645.98	27948.34
646.13	27398.31
646.27	27735.35
646.42	27817.27
646.57	28205.80
646.71	27545.76
646.86	27807.90
647.00	27737.69
647.15	27634.71
647.30	27758.75
647.44	27140.85
647.59	27662.79
647.74	27733.01
647.88	27211.07
648.03	27417.04
648.17	27840.67
648.32	27850.03
648.47	27487.25
648.61	27524.70
648.76	27967.06
648.90	27627.68
649.05	27140.85
649.20	27473.21
649.34	27527.04
649.49	27192.34
649.63	27370.22
649.78	27124.47
649.92	27241.50
650.07	27325.75
650.21	27056.59
650.36	27377.25
650.51	27260.22
650.65	27562.15
650.80	27583.21
650.94	27494.27
651.09	26932.54
651.23	26916.16
651.38	26977.01
651.52	27255.54
651.67	27290.65
651.81	27234.47
651.96	27094.04
652.10	27171.28
652.25	27276.60
652.39	27068.30
652.54	27356.18
652.68	27005.10
652.83	27419.38
652.97	27133.83
653.12	26897.44
653.26	26925.52
653.41	27047.23
653.55	26649.34
653.70	26845.94
653.84	27028.51
653.99	26625.93
654.13	26827.22
654.27	26691.47
654.42	26883.39
654.56	26953.61
654.71	27276.60
654.85	27091.70
655.00	26941.91
655.14	26668.06
655.29	26726.58
655.43	27101.06
655.57	26621.25
655.72	26480.82
655.86	26572.10
656.01	26551.04
656.15	26485.50
656.30	26700.83
656.44	26466.78
656.58	26022.08
656.73	26345.07
656.87	26426.99
657.01	26125.06
657.16	26286.56
657.30	26953.61
657.45	26443.37
657.59	26501.89
657.73	26335.71
657.88	26218.68
658.02	26541.68
658.16	26331.03
658.31	26136.76
658.45	26068.89
658.60	25916.75
658.74	26368.48
658.88	26036.12
659.03	25998.67
659.17	26225.70
659.31	26008.03
659.46	25993.99
659.60	26141.44
659.74	26099.31
659.89	26019.74
660.03	25743.55
660.17	25853.56
660.32	25642.91
660.46	25731.85
660.60	25930.80
660.74	25544.61
660.89	25841.85
661.03	25270.76
661.17	25539.93
661.32	25743.55
661.46	25832.49
661.60	25886.32
661.74	25949.52
661.89	25649.93
662.03	25717.81
662.17	25591.42
662.31	25425.24
662.46	25490.77
662.60	25401.83
662.74	25446.30
662.88	25074.16
663.03	25069.48
663.17	25394.81
663.31	25010.96
663.45	25432.26
663.60	25088.20
663.74	25200.55
663.88	25172.46
664.02	25261.40
664.17	25029.69
664.31	24575.62
664.45	25097.56
664.59	25188.85
664.73	24975.86
664.88	24781.59
665.02	24437.53
665.16	24769.89
665.30	24877.55
665.44	24929.05
665.59	24730.10
665.73	24360.30
665.87	24142.63
666.01	24402.43
666.15	24360.30
666.29	24568.60
666.44	24404.77
666.58	24840.11
666.72	23931.98
666.86	24388.38
667.00	24577.97
667.14	24648.18
667.28	24283.06
667.43	24247.95
667.57	24294.76
667.71	23866.44
667.85	23917.93
667.99	23922.62
668.13	23924.96
668.27	24079.43
668.41	24161.35
668.56	24112.20
668.70	23812.61
668.84	23913.25
668.98	23896.87
669.12	24283.06
669.26	23896.87
669.40	23747.08
669.54	24067.73
669.68	23924.96
669.82	23690.90
669.96	23779.84
670.10	23316.42
670.25	23669.84
670.39	23550.47
670.53	23367.91
670.67	22963.00
670.81	23501.32
670.95	23840.70
671.09	23274.29
671.23	23243.86
671.37	23611.32
671.51	23278.97
671.65	23171.30
671.79	23122.15
671.93	23264.92
672.07	23318.76
672.21	23255.56
672.35	22780.43
672.49	22724.26
672.63	22801.50
672.77	22654.05
672.91	22747.67
673.05	22527.66
673.19	22902.14
673.33	22541.70
673.47	22864.69
673.61	22679.79
673.75	22677.45
673.89	22342.75
674.03	22403.61
674.17	22497.23
674.31	22405.95
674.45	22253.81
674.59	22401.27
674.73	22148.49
674.87	22164.87
675.01	22066.57
675.15	22167.21
675.29	22118.06
675.43	21928.48
675.56	22162.53
675.70	22209.34
675.84	21759.96
675.98	21209.93
676.12	21907.41
676.26	22115.72
676.40	22099.34
676.54	21593.78
676.68	21472.07
676.82	21404.20
676.96	21544.63
677.10	21228.66
677.23	21254.40
677.37	21303.56
677.51	21099.93
677.65	21439.31
677.79	21041.42
677.93	20992.26
678.07	21006.31
678.21	20936.09
678.34	20709.06
678.48	20615.44
678.62	20744.17
678.76	20503.09
678.90	20524.16
679.04	20638.84
679.18	20556.93
679.31	20514.80
679.45	20489.05
679.59	20229.25
679.73	20238.61
679.87	20383.73
680.00	20102.86
680.14	19978.81
680.28	20060.73
680.42	19740.08
680.56	20262.02
680.70	19936.68
680.83	20025.62
680.97	19978.81
681.11	19838.38
681.25	19550.49
681.39	19660.50
681.52	19906.26
681.66	19335.17
681.80	19508.37
681.94	19321.12
682.07	19424.11
682.21	19302.40
682.35	19019.19
682.49	19159.63
682.62	19005.15
682.76	18991.11
682.90	18991.11
683.04	18963.02
683.17	19084.73
683.31	18867.06
683.45	19098.77
683.59	18523.00
683.72	18820.25
683.86	18810.89
684.00	18546.40
684.13	18696.20
684.27	18333.42
684.41	18349.80
684.55	18171.92
684.68	18298.31
684.82	18434.06
684.96	18017.44
685.09	17958.93
685.23	17944.89
685.37	18005.74
685.50	17879.35
685.64	18101.70
685.78	18167.24
685.91	17972.97
686.05	17759.98
686.19	17556.36
686.32	17764.67
686.46	17504.87
686.60	17387.84
686.73	17369.12
686.87	17343.37
687.01	17378.48
687.14	16985.27
687.28	17216.98
687.42	17135.06
687.55	17039.10
687.69	16980.59
687.82	17003.99
687.96	17050.80
688.10	16868.24
688.23	16912.71
688.37	16753.55
688.50	16828.45
688.64	16451.63
688.78	16659.93
688.91	16634.19
689.05	16552.27
689.18	16355.66
689.32	16240.98
689.46	16159.06
689.59	16130.97
689.73	16390.77
689.86	16287.79
690.00	16100.55
690.13	16414.18
690.27	16088.84
690.41	15939.05
690.54	15978.84
690.68	15882.88
690.81	15712.02
690.95	15910.96
691.08	16098.20
691.22	15765.85
691.35	15566.90
691.49	15777.55
691.62	15466.26
691.76	15480.30
691.89	15213.48
692.03	15374.98
692.16	15169.01
692.30	14937.30
692.43	14801.55
692.57	14949.00
692.70	14991.13
692.84	15108.16
692.97	14897.51
693.11	14738.35
693.24	14930.28
693.38	14949.00
693.51	14398.98
693.65	14754.74
693.78	14616.65
693.92	14682.18
694.05	14616.65
694.19	14303.01
694.32	14153.22
694.45	14457.49
694.59	14204.71
694.72	14230.46
694.86	13951.93
694.99	14015.13
695.13	14050.24
695.26	14155.56
695.39	13729.58
695.53	13912.14
695.66	13626.60
695.80	13692.13
695.93	13724.90
696.07	13809.16
696.20	13823.20
696.33	13767.03
696.47	13495.53
696.60	13607.87
696.73	13617.24
696.87	13404.25
697.00	13165.51
697.14	13039.12
697.27	13153.81
697.40	13102.32
697.54	13076.57
697.67	12989.97
697.80	12793.37
697.94	12624.85
698.07	12905.71
698.21	12615.49
698.34	12945.50
698.47	12940.82
698.61	12444.63
698.74	12762.94
698.87	12676.34
699.01	12318.24
699.14	12599.10
699.27	12201.21
699.40	12503.14
699.54	12486.76
699.67	12105.25
699.80	12156.74
699.94	12109.93
700.07	12241.00
700.20	11976.52
700.34	11749.49
700.47	11630.12
700.60	11709.70
700.73	11941.41
700.87	11815.02
701.00	11698.00
701.13	11562.25
701.26	11686.29
701.40	11969.50
701.53	11719.06
701.66	11754.17
701.79	11379.68
701.93	11555.22
702.06	11461.60
702.19	11145.63
702.32	11183.08
702.46	11054.35
702.59	11136.27
702.72	11138.61
702.85	11171.38
702.99	11131.59
703.12	10871.79
703.25	11049.67
703.38	10869.45
703.51	10832.00
703.65	10778.17
703.78	10642.42
703.91	10754.76
704.04	10803.91
704.17	10700.93
704.31	10717.31
704.44	10623.69
704.57	10312.40
704.70	10354.53
704.83	10408.36
704.96	10289.00
705.10	10068.98
705.23	10286.65
>>>>>End Processed Spectral Data<<<<<
