SpectraSuite Data File
++++++++++++++++++++++++++++++++++++
Date: Fri Oct 18 13:58:40 GMT-05:00 2013
User: bianchi
Dark Spectrum Present: No
Reference Spectrum Present: No
Number of Sampled Component Spectra: 1
Spectrometers: USB2+H05261
Integration Time (usec): 50000 (USB2+H05261)
Spectra Averaged: 1 (USB2+H05261)
Boxcar Smoothing: 0 (USB2+H05261)
Correct for Electrical Dark: No (USB2+H05261)
Strobe/Lamp Enabled: No (USB2+H05261)
Correct for Detector Non-linearity: No (USB2+H05261)
Correct for Stray Light: No (USB2+H05261)
Number of Pixels in Processed Spectrum: 2048
>>>>>Begin Processed Spectral Data<<<<<
365.73	0.00
365.92	0.00
366.12	0.00
366.32	0.00
366.52	0.00
366.72	0.00
366.91	0.00
367.11	0.00
367.31	0.00
367.51	0.00
367.70	0.00
367.90	0.00
368.10	0.00
368.30	0.00
368.49	0.00
368.69	0.00
368.89	0.00
369.09	0.00
369.28	0.00
369.48	0.00
369.68	0.00
369.87	0.00
370.07	0.00
370.27	0.00
370.47	0.00
370.66	74.90
370.86	79.58
371.06	152.13
371.25	112.35
371.45	102.98
371.65	234.05
371.84	154.48
372.04	175.54
372.24	224.69
372.44	187.24
372.63	205.97
372.83	194.26
373.03	234.05
373.22	222.35
373.42	194.26
373.62	145.11
373.81	285.55
374.01	271.50
374.21	220.01
374.40	269.16
374.60	205.97
374.79	177.88
374.99	194.26
375.19	255.12
375.38	287.89
375.58	245.76
375.78	276.18
375.97	227.03
376.17	285.55
376.37	196.60
376.56	262.14
376.76	259.80
376.95	217.67
377.15	348.74
377.35	280.86
377.54	285.55
377.74	217.67
377.93	191.92
378.13	369.80
378.33	273.84
378.52	306.61
378.72	208.31
378.91	320.65
379.11	308.95
379.31	252.78
379.50	301.93
379.70	315.97
379.89	337.04
380.09	337.04
380.28	283.20
380.48	297.25
380.68	257.46
380.87	322.99
381.07	346.40
381.26	346.40
381.46	262.14
381.65	381.51
381.85	278.52
382.04	332.36
382.24	332.36
382.43	255.12
382.63	322.99
382.83	334.70
383.02	369.80
383.22	372.15
383.41	374.49
383.61	374.49
383.80	353.42
384.00	330.02
384.19	353.42
384.39	400.23
384.58	440.02
384.78	337.04
384.97	407.25
385.17	430.66
385.36	451.72
385.56	379.17
385.75	365.12
385.95	388.53
386.14	402.57
386.34	440.02
386.53	416.62
386.72	379.17
386.92	365.12
387.11	374.49
387.31	330.02
387.50	404.91
387.70	416.62
387.89	397.89
388.09	383.85
388.28	456.40
388.48	404.91
388.67	444.70
388.86	400.23
389.06	442.36
389.25	404.91
389.45	468.11
389.64	514.92
389.84	489.17
390.03	510.24
390.22	430.66
390.42	535.98
390.61	510.24
390.81	468.11
391.00	568.75
391.19	454.06
391.39	435.34
391.58	503.22
391.78	613.22
391.97	514.92
392.16	491.51
392.36	648.33
392.55	505.56
392.75	528.96
392.94	592.16
393.13	554.71
393.33	552.37
393.52	528.96
393.71	589.82
393.91	547.69
394.10	554.71
394.29	603.86
394.49	582.79
394.68	580.45
394.88	531.30
395.07	514.92
395.26	617.90
395.46	589.82
395.65	643.65
395.84	685.78
396.04	578.11
396.23	671.73
396.42	599.18
396.62	655.35
396.81	660.03
397.00	615.56
397.19	641.31
397.39	594.50
397.58	671.73
397.77	648.33
397.97	690.46
398.16	711.52
398.35	657.69
398.55	734.93
398.74	688.12
398.93	678.76
399.12	739.61
399.32	671.73
399.51	739.61
399.70	681.10
399.90	795.78
400.09	716.20
400.28	770.04
400.47	779.40
400.67	755.99
400.86	730.25
401.05	746.63
401.24	774.72
401.44	798.12
401.63	774.72
401.82	795.78
402.01	709.18
402.21	774.72
402.40	716.20
402.59	786.42
402.78	866.00
402.97	816.85
403.17	840.25
403.36	840.25
403.55	873.02
403.74	894.08
403.93	908.13
404.13	912.81
404.32	912.81
404.51	926.85
404.70	880.04
404.89	1011.11
405.09	985.37
405.28	929.19
405.47	933.87
405.66	1018.13
405.85	980.68
406.05	1032.18
406.24	994.73
406.43	999.41
406.62	999.41
406.81	976.00
407.00	997.07
407.20	957.28
407.39	1069.62
407.58	1020.47
407.77	1053.24
407.96	1029.84
408.15	1071.97
408.34	1046.22
408.54	1132.82
408.73	1224.10
408.92	1095.37
409.11	1121.12
409.30	1142.18
409.49	1137.50
409.68	1062.60
409.87	1167.93
410.07	1116.44
410.26	1153.88
410.45	1160.91
410.64	1181.97
410.83	1130.48
411.02	1233.46
411.21	1247.51
411.40	1249.85
411.59	1266.23
411.78	1214.74
411.98	1224.10
412.17	1191.33
412.36	1273.25
412.55	1287.29
412.74	1263.89
412.93	1301.34
413.12	1315.38
413.31	1425.39
413.50	1362.19
413.69	1427.73
413.88	1460.49
414.07	1359.85
414.26	1334.11
414.45	1465.18
414.64	1448.79
414.83	1530.71
415.02	1472.20
415.22	1535.39
415.41	1481.56
415.60	1540.07
415.79	1540.07
415.98	1586.88
416.17	1596.25
416.36	1614.97
416.55	1605.61
416.74	1727.32
416.93	1734.34
417.12	1671.14
417.31	1659.44
417.50	1685.19
417.69	1729.66
417.88	1666.46
418.07	1675.82
418.26	1645.40
418.45	1757.74
418.64	1867.75
418.83	1769.44
419.02	1776.47
419.21	1792.85
419.39	1827.96
419.58	1816.26
419.77	1858.39
419.96	1860.73
420.15	1970.73
420.34	1863.07
420.53	1863.07
420.72	1970.73
420.91	1919.24
421.10	1863.07
421.29	2062.01
421.48	1846.68
421.67	1961.37
421.86	1926.26
422.05	1966.05
422.24	1987.11
422.43	2064.35
422.61	1898.17
422.80	2062.01
422.99	1989.46
423.18	1926.26
423.37	2003.50
423.56	1982.43
423.75	1949.67
423.94	1874.77
424.13	1790.51
424.32	1870.09
424.50	1977.75
424.69	2036.27
424.88	2066.69
425.07	1982.43
425.26	2062.01
425.45	1973.07
425.64	1919.24
425.83	1947.33
426.01	1994.14
426.20	2052.65
426.39	2031.58
426.58	2066.69
426.77	2026.90
426.96	2033.93
427.15	2059.67
427.33	2101.80
427.52	2139.25
427.71	2153.29
427.90	2211.81
428.09	2162.66
428.28	2146.27
428.46	2251.60
428.65	2289.04
428.84	2253.94
429.03	2251.60
429.22	2150.95
429.40	2300.75
429.59	2312.45
429.78	2111.16
429.97	2181.38
430.16	2200.10
430.34	2338.20
430.53	2380.32
430.72	2305.43
430.91	2328.83
431.10	2275.00
431.28	2368.62
431.47	2272.66
431.66	2448.20
431.85	2466.92
432.03	2452.88
432.22	2410.75
432.41	2473.95
432.60	2410.75
432.79	2452.88
432.97	2359.26
433.16	2387.35
433.35	2413.09
433.54	2445.86
433.72	2495.01
433.91	2558.21
434.10	2436.50
434.28	2450.54
434.47	2513.74
434.66	2450.54
434.85	2663.53
435.03	2619.06
435.22	2502.03
435.41	2726.72
435.59	2633.10
435.78	2710.34
435.97	2750.13
436.16	2593.31
436.34	2722.04
436.53	2672.89
436.72	2616.72
436.90	2637.78
437.09	2597.99
437.28	2729.06
437.46	2628.42
437.65	2768.85
437.84	2771.19
438.02	2832.05
438.21	2822.69
438.40	2649.49
438.58	2792.26
438.77	2869.50
438.96	2895.24
439.14	2902.26
439.33	2874.18
439.52	3054.40
439.70	2925.67
439.89	2930.35
440.08	3180.79
440.26	2979.50
440.45	3000.57
440.63	2974.82
440.82	3002.91
441.01	3117.59
441.19	3141.00
441.38	3239.30
441.57	3038.02
441.75	3068.44
441.94	3309.52
442.12	3246.32
442.31	3159.72
442.50	3321.22
442.68	3342.28
442.87	3253.34
443.05	3283.77
443.24	3412.50
443.43	3412.50
443.61	3361.01
443.80	3396.12
443.98	3103.55
444.17	3105.89
444.35	3368.03
444.54	3459.31
444.73	3447.61
444.91	3405.48
445.10	3318.88
445.28	3590.38
445.47	3494.42
445.65	3466.33
445.84	3588.04
446.02	3482.72
446.21	3370.37
446.39	3393.78
446.58	3412.50
446.77	3641.87
446.95	3424.20
447.14	3393.78
447.32	3534.21
447.51	3492.08
447.69	3440.59
447.88	3463.99
448.06	3421.86
448.25	3440.59
448.43	3389.10
448.62	3482.72
448.80	3574.00
448.99	3571.66
449.17	3503.78
449.36	3524.85
449.54	3604.42
449.73	3639.53
449.91	3794.01
450.10	3754.22
450.28	3740.18
450.46	3651.24
450.65	3728.47
450.83	3815.07
451.02	3728.47
451.20	3634.85
451.39	3747.20
451.57	3763.58
451.76	3698.05
451.94	3801.03
452.13	3779.97
452.31	3819.75
452.49	3831.46
452.68	3833.80
452.86	3742.52
453.05	3822.09
453.23	3810.39
453.42	3812.73
453.60	3887.63
453.78	3843.16
453.97	3918.06
454.15	3901.67
454.34	3880.61
454.52	4018.70
454.70	3985.93
454.89	3997.64
455.07	4030.40
455.26	3906.35
455.44	4079.55
455.62	4030.40
455.81	4098.28
455.99	4044.45
456.17	4152.11
456.36	4140.41
456.54	4236.37
456.73	4154.45
456.91	4381.48
457.09	4227.01
457.28	4322.97
457.46	4177.86
457.64	4372.12
457.83	4257.43
458.01	4332.33
458.19	4231.69
458.38	4435.32
458.56	4477.44
458.74	4479.79
458.93	4404.89
459.11	4301.90
459.29	4510.21
459.48	4627.24
459.66	4615.54
459.84	4472.76
460.03	4435.32
460.21	4353.40
460.39	4507.87
460.57	4559.36
460.76	4589.79
460.94	4465.74
461.12	4601.49
461.31	4587.45
461.49	4634.26
461.67	4395.53
461.85	4760.65
462.04	4781.71
462.22	4753.63
462.40	4706.82
462.59	4779.37
462.77	4624.90
462.95	4688.09
463.13	4784.06
463.32	4830.87
463.50	4870.65
463.68	4793.42
463.86	4861.29
464.05	4650.64
464.23	4835.55
464.41	4945.55
464.59	4798.10
464.78	4978.32
464.96	4938.53
465.14	4802.78
465.32	5055.56
465.50	5036.83
465.69	5029.81
465.87	4851.93
466.05	4887.04
466.23	5018.11
466.41	5121.09
466.60	5191.31
466.78	4961.94
466.96	5053.22
467.14	5149.18
467.32	5013.43
467.51	5050.88
467.69	4954.91
467.87	5069.60
468.05	5067.26
468.23	5088.32
468.41	5064.92
468.60	5163.22
468.78	5235.78
468.96	5186.63
469.14	5158.54
469.32	5200.67
469.50	5245.14
469.69	5296.63
469.87	5324.72
470.05	5345.78
470.23	5336.42
470.41	5359.83
470.59	5521.32
470.77	5343.44
470.95	5362.17
471.14	5446.43
471.32	5331.74
471.50	5453.45
471.68	5626.65
471.86	5579.84
472.04	5621.97
472.22	5767.08
472.40	5612.60
472.58	5792.83
472.77	5680.48
472.95	5806.87
473.13	6008.16
473.31	5905.17
473.49	5727.29
473.67	5781.12
473.85	5797.51
474.03	6061.99
474.21	5937.94
474.39	6022.20
474.57	6221.14
474.75	6038.58
474.93	6106.46
475.12	6286.68
475.30	6193.06
475.48	6071.35
475.66	6263.27
475.84	6242.21
476.02	6319.45
476.20	6141.57
476.38	6368.60
476.56	6544.14
476.74	6555.84
476.92	6490.31
477.10	6523.07
477.28	6633.08
477.46	6597.97
477.64	6553.50
477.82	6754.79
478.00	6927.99
478.18	6970.12
478.36	7119.91
478.54	6937.35
478.72	7007.56
478.90	7131.61
479.08	7206.51
479.26	7166.72
479.44	7258.00
479.62	7140.97
479.80	7442.90
479.98	7384.39
480.16	7590.36
480.34	7545.89
480.52	7648.87
480.70	7611.42
480.88	7543.55
481.06	7538.87
481.24	7630.15
481.41	7939.10
481.59	7880.58
481.77	8046.76
481.95	7971.86
482.13	7939.10
482.31	8072.51
482.49	8336.99
482.67	8276.13
482.85	8425.93
483.03	8500.83
483.21	8458.70
483.39	8545.30
483.57	8510.19
483.74	8674.03
483.92	8592.11
484.10	8645.94
484.28	8950.21
484.46	8898.72
484.64	9022.77
484.82	8842.54
485.00	9083.62
485.18	9111.71
485.35	9191.28
485.53	9537.68
485.71	9212.35
485.89	9336.40
486.07	9535.34
486.25	9568.11
486.43	9699.18
486.61	9825.57
486.78	9973.02
486.96	10050.26
487.14	10136.86
487.32	10040.90
487.50	9935.57
487.68	10202.40
487.85	10281.97
488.03	10485.60
488.21	10532.41
488.39	10478.58
488.57	10836.68
488.75	10782.85
488.92	10714.97
489.10	10850.72
489.28	10885.83
489.46	10988.82
489.64	10930.30
489.81	11117.54
489.99	11119.89
490.17	11243.93
490.35	11337.56
490.53	11286.06
490.70	11637.14
490.88	11272.02
491.06	11681.61
491.24	11679.27
491.41	12006.95
491.59	12044.40
491.77	11999.93
491.95	12074.82
492.13	12107.59
492.30	11922.69
492.48	12390.80
492.66	12250.36
492.84	12376.75
493.01	12416.54
493.19	12336.96
493.37	12826.14
493.54	12463.35
493.72	12819.11
493.90	12961.89
494.08	12741.88
494.25	12975.93
494.43	13174.88
494.61	13020.40
494.79	13357.44
494.96	13132.75
495.14	13544.68
495.32	13282.54
495.49	13369.14
495.67	13535.32
495.85	13689.79
496.02	13612.56
496.20	13926.19
496.38	13659.37
496.55	13853.63
496.73	14075.98
496.91	13991.72
497.09	14183.65
497.26	14040.87
497.44	14382.59
497.62	14370.89
497.79	14452.81
497.97	14258.54
498.14	14471.53
498.32	14794.53
498.50	14607.28
498.67	15009.86
498.85	14827.29
499.03	14949.00
499.20	15016.88
499.38	15239.23
499.56	14888.15
499.73	15330.51
499.91	15096.46
500.08	15496.69
500.26	15218.16
500.44	15108.16
500.61	15391.36
500.79	15372.64
500.97	15438.17
501.14	15817.34
501.32	15503.71
501.49	15625.42
501.67	15690.95
501.84	15676.91
502.02	15695.63
502.20	15857.13
502.37	15971.82
502.55	15763.51
502.72	16212.89
502.90	16049.05
503.07	16088.84
503.25	16177.78
503.43	16231.62
503.60	16264.38
503.78	16435.24
503.95	16388.43
504.13	16512.48
504.30	16734.83
504.48	16306.51
504.65	16542.91
504.83	16779.30
505.01	17149.11
505.18	17238.05
505.36	17137.40
505.53	16917.39
505.71	16919.73
505.88	17181.87
506.06	16968.88
506.23	17259.11
506.41	17153.79
506.58	17188.89
506.76	17366.78
506.93	17369.12
507.11	17343.37
507.28	17378.48
507.46	17352.73
507.63	17444.01
507.81	17668.70
507.98	17696.79
508.16	17628.92
508.33	17582.10
508.50	17654.66
508.68	17563.38
508.85	17804.46
509.03	18223.41
509.20	18230.43
509.38	18281.92
509.55	18459.81
509.73	18333.42
509.90	18242.14
510.08	17799.77
510.25	18232.77
510.42	18452.78
510.60	18651.73
510.77	18633.00
510.95	18537.04
511.12	18443.42
511.30	18595.56
511.47	18642.37
511.64	18895.14
511.82	18972.38
511.99	18785.14
512.17	19124.52
512.34	18988.77
512.51	19255.59
512.69	18892.80
512.86	19014.51
513.04	19475.60
513.21	19332.82
513.38	19449.85
513.56	19124.52
513.73	19225.16
513.90	19569.22
514.08	19555.18
514.25	19307.08
514.43	19711.99
514.60	19737.74
514.77	19599.65
514.95	19831.36
515.12	19751.78
515.29	19733.06
515.47	19988.18
515.64	20182.44
515.81	19786.89
515.99	20250.32
516.16	20250.32
516.33	20280.74
516.51	19908.60
516.68	20126.27
516.85	20018.60
517.03	20166.06
517.20	20273.72
517.37	20374.36
517.54	20350.96
517.72	20170.74
517.89	20503.09
518.06	20716.08
518.24	20404.79
518.41	20320.53
518.58	20622.46
518.75	20957.16
518.93	20624.80
519.10	20503.09
519.27	20893.96
519.45	20643.52
519.62	20835.45
519.79	20879.92
519.96	20905.66
520.14	21319.94
520.31	21170.15
520.48	21221.64
520.65	21219.30
520.83	21514.20
521.00	21273.13
521.17	21303.56
521.34	21378.45
521.52	21535.27
521.69	21432.29
521.86	21378.45
522.03	21774.00
522.20	21678.04
522.38	21935.50
522.55	21565.70
522.72	21661.66
522.89	21755.28
523.07	21884.01
523.24	22106.36
523.41	22146.15
523.58	21802.09
523.75	22010.40
523.92	22022.10
524.10	22038.48
524.27	22199.98
524.44	22380.20
524.61	22359.14
524.78	22029.12
524.96	22417.65
525.13	22532.34
525.30	22441.06
525.47	22492.55
525.64	22572.13
525.81	22569.79
525.98	22782.77
526.16	22717.24
526.33	22869.37
526.50	22998.10
526.67	22710.22
526.84	22515.95
527.01	22946.61
527.18	22885.76
527.36	23157.26
527.53	22771.07
527.70	23290.67
527.87	23339.82
528.04	23204.07
528.21	23119.81
528.38	22764.05
528.55	23178.33
528.72	22923.21
528.89	23419.40
529.07	23065.98
529.24	23241.52
529.41	23388.97
529.58	23271.95
529.75	23545.79
529.92	23194.71
530.09	23337.48
530.26	23094.07
530.43	23618.35
530.60	23693.24
530.77	23033.21
530.94	23494.30
531.11	23616.01
531.28	23342.16
531.46	23566.85
531.63	23847.72
531.80	24205.82
531.97	23751.76
532.14	23637.07
532.31	23845.38
532.48	24219.86
532.65	24058.37
532.82	24173.05
532.99	23988.15
533.16	23644.09
533.33	24030.28
533.50	24341.57
533.67	24505.41
533.84	23805.59
534.01	24407.11
534.18	24144.97
534.35	24191.78
534.52	24063.05
534.69	24620.10
534.86	24460.94
535.03	24442.21
535.20	24439.87
535.37	24788.61
535.54	24395.40
535.71	24474.98
535.88	24563.92
536.05	24339.23
536.22	24903.30
536.38	24676.27
536.55	24900.96
536.72	24936.07
536.89	24706.70
537.06	24638.82
537.23	24697.33
537.40	24739.46
537.57	24858.83
537.74	24498.39
537.91	25078.84
538.08	25020.33
538.25	24917.34
538.42	25209.91
538.59	25142.03
538.75	25132.67
538.92	24769.89
539.09	25348.00
539.26	25436.94
539.43	25326.94
539.60	25378.43
539.77	25333.96
539.94	25523.54
540.11	25219.27
540.28	25397.15
540.44	25333.96
540.61	25214.59
540.78	25390.13
540.95	25750.57
541.12	25558.65
541.29	25560.99
541.46	25422.90
541.62	25762.28
541.79	25525.88
541.96	25317.57
542.13	25748.23
542.30	25628.87
542.47	26125.06
542.63	25916.75
542.80	26174.21
542.97	26038.46
543.14	25832.49
543.31	26171.87
543.48	25933.14
543.64	26059.52
543.81	26609.55
543.98	26342.73
544.15	26747.64
544.32	26305.28
544.48	26478.48
544.65	26443.37
544.82	26443.37
544.99	26183.57
545.16	26649.34
545.32	26565.08
545.49	26675.09
545.66	26890.41
545.83	26630.62
546.00	26696.15
546.16	26623.59
546.33	26321.66
546.50	26298.26
546.67	26586.15
546.83	26555.72
547.00	26553.38
547.17	26810.84
547.34	26740.62
547.50	27016.80
547.67	27122.13
547.84	27049.57
548.00	27087.02
548.17	27126.81
548.34	27454.48
548.51	27049.57
548.67	27150.21
548.84	27290.65
549.01	27222.77
549.18	27049.57
549.34	27016.80
549.51	27117.45
549.68	27152.55
549.84	27372.57
550.01	27445.12
550.18	27168.94
550.34	27377.25
550.51	27321.07
550.68	27398.31
550.84	27311.71
551.01	27412.35
551.18	27250.86
551.34	27117.45
551.51	26986.38
551.68	27047.23
551.84	27580.87
552.01	27300.01
552.18	27618.32
552.34	27580.87
552.51	27541.08
552.68	27527.04
552.84	27648.75
553.01	27527.04
553.18	27686.20
553.34	27658.11
553.51	27828.97
553.67	27683.86
553.84	27796.20
554.01	28041.96
554.17	27917.91
554.34	27770.46
554.51	27892.16
554.67	27873.44
554.84	27807.90
555.00	28056.00
555.17	27655.77
555.33	27906.21
555.50	27690.88
555.67	28079.41
555.83	27786.84
556.00	27964.72
556.16	28219.84
556.33	27611.30
556.50	28020.89
556.66	28095.79
556.83	28102.81
556.99	28250.27
557.16	28051.32
557.32	28004.51
557.49	28608.37
557.65	28053.66
557.82	27843.01
557.98	27878.12
558.15	28559.22
558.32	28512.41
558.48	28259.63
558.65	28346.23
558.81	28294.74
558.98	28327.50
559.14	28299.42
559.31	27885.14
559.47	28472.62
559.64	28329.84
559.80	28467.94
559.97	28741.78
560.13	28463.25
560.30	28538.15
560.46	28694.97
560.63	28615.39
560.79	28474.96
560.96	28697.31
561.12	28727.74
561.29	28325.16
561.45	28554.54
561.61	28673.90
561.78	28737.10
561.94	28730.08
562.11	28678.58
562.27	28669.22
562.44	28423.47
562.60	28819.02
562.77	28938.38
562.93	28606.03
563.10	28762.84
563.26	28877.53
563.42	28884.55
563.59	28811.99
563.75	29097.54
563.92	28994.56
564.08	28816.68
564.24	29266.06
564.41	29085.84
564.57	28811.99
564.74	28957.11
564.90	28774.55
565.07	29039.03
565.23	29050.73
565.39	28938.38
565.56	29352.66
565.72	29024.98
565.88	29202.86
566.05	29064.77
566.21	29074.13
566.38	29240.31
566.54	29151.37
566.70	29462.66
566.87	29118.60
567.03	29137.33
567.19	29518.84
567.36	29130.31
567.52	29228.61
567.68	29418.19
567.85	29177.12
568.01	28900.94
568.17	29083.50
568.34	29542.24
568.50	29287.12
568.66	28996.90
568.83	29270.74
568.99	29116.26
569.15	29193.50
569.32	28882.21
569.48	29191.16
569.64	29305.85
569.81	29095.20
569.97	29111.58
570.13	29525.86
570.30	29252.02
570.46	29247.33
570.62	29572.67
570.78	29254.36
570.95	28835.40
571.11	29249.67
571.27	29404.15
571.43	29240.31
571.60	29687.36
571.76	29387.77
571.92	29333.93
572.09	29441.60
572.25	29385.43
572.41	29546.92
572.57	29514.16
572.74	29060.09
572.90	29317.55
573.06	29235.63
573.22	29392.45
573.38	29338.62
573.55	28952.43
573.71	29680.33
573.87	29404.15
574.03	29612.46
574.20	29385.43
574.36	29256.70
574.52	29259.04
574.68	29263.72
574.84	29582.03
575.01	29469.69
575.17	29535.22
575.33	29275.42
575.49	29191.16
575.65	29654.59
575.82	29621.82
575.98	29469.69
576.14	29703.74
576.30	29790.34
576.46	29383.09
576.62	28975.83
576.79	29649.91
576.95	29476.71
577.11	29902.68
577.27	29692.04
577.43	29738.85
577.59	29462.66
577.75	29303.51
577.92	29259.04
578.08	29350.32
578.24	29521.18
578.40	29474.37
578.56	29762.25
578.72	29921.41
578.88	30005.67
579.04	29720.12
579.21	29771.61
579.37	29666.29
579.53	29659.27
579.69	29703.74
579.85	29284.78
580.01	29455.64
580.17	29619.48
580.33	29355.00
580.49	29420.53
580.65	29916.73
580.82	29956.52
580.98	29816.08
581.14	29371.38
581.30	29848.85
581.46	29567.99
581.62	29500.11
581.78	29675.65
581.94	29626.50
582.10	29284.78
582.26	29626.50
582.42	29638.20
582.58	29935.45
582.74	29490.75
582.90	29827.79
583.06	29830.13
583.22	29434.58
583.38	29677.99
583.54	29731.83
583.70	30036.09
583.86	29532.88
584.02	29652.25
584.18	29937.79
584.34	29984.60
584.50	29699.06
584.66	29575.01
584.82	29563.31
584.98	29401.81
585.14	29977.58
585.30	29504.79
585.46	29645.23
585.62	29727.14
585.78	29837.15
585.94	29174.78
586.10	29830.13
586.26	29612.46
586.42	29991.62
586.58	29628.84
586.74	29523.52
586.90	29600.76
587.06	29617.14
587.22	29287.12
587.38	30232.70
587.54	29912.05
587.70	29762.25
587.86	29816.08
588.02	30270.15
588.18	30167.16
588.34	30099.29
588.49	29748.21
588.65	29818.42
588.81	29666.29
588.97	29685.01
589.13	30061.84
589.29	30073.54
589.45	29956.52
589.61	29970.56
589.77	29755.23
589.93	29773.95
590.08	30333.34
590.24	30340.36
590.40	30190.57
590.56	29575.01
590.72	29823.11
590.88	30000.99
591.04	30040.78
591.20	30101.63
591.35	30213.98
591.51	30178.87
591.67	30082.91
591.83	30237.38
591.99	30181.21
592.15	30403.56
592.31	30209.29
592.46	30132.06
592.62	29986.94
592.78	30134.40
592.94	30176.53
593.10	29895.66
593.26	30403.56
593.41	30246.74
593.57	30246.74
593.73	30366.11
593.89	30401.22
594.05	29991.62
594.20	30183.55
594.36	30132.06
594.52	30312.28
594.68	30075.88
594.84	29799.70
594.99	30183.55
595.15	30089.93
595.31	30349.73
595.47	30293.55
595.62	30328.66
595.78	30272.49
595.94	30171.85
596.10	30230.36
596.25	30092.27
596.41	30005.67
596.57	29954.18
596.73	29802.04
596.88	30235.04
597.04	30176.53
597.20	30597.82
597.36	30148.44
597.51	30340.36
597.67	30169.51
597.83	30190.57
597.99	30221.00
598.14	30139.08
598.30	30319.30
598.46	30033.75
598.61	30286.53
598.77	30134.40
598.93	30218.66
599.09	30251.42
599.24	30916.14
599.40	30941.88
599.56	30429.30
599.71	30483.14
599.87	30246.74
600.03	30223.34
600.18	30209.29
600.34	30174.19
600.50	30246.74
600.65	30485.48
600.81	30452.71
600.97	30607.19
601.12	30602.50
601.28	30422.28
601.44	30429.30
601.59	30478.46
601.75	30087.59
601.91	30576.76
602.06	30394.20
602.22	30375.47
602.37	30553.35
602.53	30340.36
602.69	30239.72
602.84	30279.51
603.00	30403.56
603.16	30363.77
603.31	30345.05
603.47	30171.85
603.62	30125.04
603.78	30747.62
603.94	29975.24
604.09	30323.98
604.25	30188.23
604.40	30110.99
604.56	30295.89
604.71	30766.34
604.87	30466.75
605.03	30288.87
605.18	30445.69
605.34	30272.49
605.49	30237.38
605.65	30394.20
605.80	29965.88
605.96	29834.81
606.12	30153.12
606.27	30389.52
606.43	30192.91
606.58	30122.69
606.74	30206.95
606.89	30223.34
607.05	30319.30
607.20	29872.26
607.36	30305.26
607.51	30490.16
607.67	30202.27
607.82	30281.85
607.98	29551.60
608.13	30253.76
608.29	30284.19
608.44	30150.78
608.60	29869.92
608.75	30347.39
608.91	30422.28
609.06	30089.93
609.22	30103.97
609.37	29752.89
609.53	30132.06
609.68	29975.24
609.84	29680.33
609.99	29970.56
610.15	29804.38
610.30	29947.15
610.46	29788.00
610.61	29998.65
610.76	30118.01
610.92	30272.49
611.07	30068.86
611.23	30012.69
611.38	30110.99
611.54	29951.84
611.69	29474.37
611.84	29575.01
612.00	29701.40
612.15	29890.98
612.31	30242.06
612.46	29727.14
612.62	30403.56
612.77	29661.61
612.92	30031.41
613.08	29933.11
613.23	29799.70
613.39	29673.31
613.54	29710.76
613.69	29771.61
613.85	29607.78
614.00	29490.75
614.15	30082.91
614.31	29497.77
614.46	29780.98
614.62	29624.16
614.77	29940.13
614.92	29820.77
615.08	29612.46
615.23	29507.13
615.38	29406.49
615.54	29174.78
615.69	29799.70
615.84	29469.69
616.00	29905.02
616.15	29586.71
616.30	29610.12
616.46	29596.07
616.61	29448.62
616.76	29743.53
616.92	29380.74
617.07	29436.92
617.22	29380.74
617.37	29324.57
617.53	29263.72
617.68	29350.32
617.83	29221.59
617.99	29046.05
618.14	29177.12
618.29	29137.33
618.45	29111.58
618.60	29347.98
618.75	29670.97
618.90	29137.33
619.06	29607.78
619.21	29420.53
619.36	29333.93
619.51	29298.83
619.67	28636.45
619.82	28886.89
619.97	29092.86
620.12	29116.26
620.28	28931.36
620.43	28809.65
620.58	29172.44
620.73	28898.59
620.89	29116.26
621.04	29720.12
621.19	29514.16
621.34	28940.72
621.49	28889.23
621.65	28709.01
621.80	29184.14
621.95	28982.85
622.10	29137.33
622.25	28786.25
622.41	28816.68
622.56	28627.09
622.71	29109.24
622.86	28929.02
623.01	28900.94
623.16	28851.78
623.32	28664.54
623.47	28861.15
623.62	28886.89
623.77	28910.30
623.92	28884.55
624.07	28655.18
624.23	28861.15
624.38	28510.07
624.53	28713.69
624.68	28533.47
624.83	28868.17
624.98	28694.97
625.13	28952.43
625.29	28783.91
625.44	28842.42
625.59	28318.14
625.74	28315.80
625.89	28299.42
626.04	28273.67
626.19	28425.81
626.34	28386.02
626.49	28100.47
626.65	28814.34
626.80	28591.98
626.95	28397.72
627.10	28599.01
627.25	28252.61
627.40	28313.46
627.55	28320.48
627.70	27938.97
627.85	27971.74
628.00	28002.17
628.15	27964.72
628.30	28149.62
628.45	28170.69
628.60	28261.97
628.76	28444.53
628.91	28280.69
629.06	28194.09
629.21	28105.15
629.36	28091.11
629.51	28198.77
629.66	28285.37
629.81	28362.61
629.96	28048.98
630.11	27754.07
630.26	27489.59
630.41	27969.40
630.56	28063.02
630.71	28297.08
630.86	28259.63
631.01	27967.06
631.16	27903.87
631.31	27990.47
631.46	27477.89
631.61	28140.26
631.76	27843.01
631.91	28135.58
632.06	27683.86
632.21	27864.08
632.36	27847.69
632.51	27229.79
632.66	27978.76
632.81	27660.45
632.96	27828.97
633.10	27651.09
633.25	27775.14
633.40	28025.57
633.55	27438.10
633.70	27213.41
633.85	27346.82
634.00	27243.84
634.15	27707.26
634.30	27604.28
634.45	27314.05
634.60	27110.43
634.75	27438.10
634.90	27351.50
635.05	27981.10
635.19	27686.20
635.34	27765.78
635.49	27410.01
635.64	27590.24
635.79	27503.64
635.94	27599.60
636.09	27227.45
636.24	27204.05
636.39	27260.22
636.53	27377.25
636.68	27442.78
636.83	27442.78
636.98	27248.52
637.13	27271.92
637.28	27281.28
637.43	27220.43
637.57	27555.13
637.72	27300.01
637.87	26993.40
638.02	27161.92
638.17	26897.44
638.32	27124.47
638.46	26852.97
638.61	26984.04
638.76	26668.06
638.91	26745.30
639.06	27138.51
639.20	27243.84
639.35	26955.95
639.50	27204.05
639.65	27206.39
639.80	27101.06
639.94	26930.20
640.09	26801.47
640.24	26794.45
640.39	27204.05
640.54	26499.55
640.68	26623.59
640.83	26579.12
640.98	26962.97
641.13	26499.55
641.27	26981.70
641.42	26380.18
641.57	26789.77
641.72	26614.23
641.86	26508.91
642.01	26799.13
642.16	26333.37
642.31	26410.60
642.45	26518.27
642.60	26321.66
642.75	26324.01
642.90	26462.10
643.04	26728.92
643.19	26562.74
643.34	26228.04
643.48	26614.23
643.63	26719.56
643.78	26534.65
643.93	26649.34
644.07	26326.35
644.22	26382.52
644.37	26813.18
644.51	26274.85
644.66	26600.19
644.81	25993.99
644.95	26389.54
645.10	26295.92
645.25	26274.85
645.39	26235.06
645.54	26431.67
645.69	26164.85
645.83	26206.98
645.98	26260.81
646.13	26450.39
646.27	26375.50
646.42	26178.89
646.57	26345.07
646.71	26118.04
646.86	26111.02
647.00	26001.01
647.15	25956.54
647.30	25813.77
647.44	25738.87
647.59	25951.86
647.74	25898.03
647.88	25975.27
648.03	26324.01
648.17	26361.45
648.32	26195.28
648.47	26099.31
648.61	26242.09
648.76	25888.67
648.90	26024.42
649.05	26085.27
649.20	25745.89
649.34	25984.63
649.49	25919.09
649.63	25752.91
649.78	25605.46
649.92	25495.46
650.07	25804.41
650.21	25923.77
650.36	26197.62
650.51	26080.59
650.65	25809.09
650.80	25680.36
650.94	25781.00
651.09	25671.00
651.23	25628.87
651.38	25855.90
651.52	25460.35
651.67	25252.04
651.81	25832.49
651.96	25357.36
652.10	25509.50
652.25	25397.15
652.39	25469.71
652.54	25682.70
652.68	25537.59
652.83	25806.75
652.97	25935.48
653.12	25343.32
653.26	25113.95
653.41	25635.89
653.55	25294.17
653.70	25109.27
653.84	25146.72
653.99	25572.69
654.13	25385.45
654.27	25064.80
654.42	25376.09
654.56	25259.06
654.71	25846.54
654.85	25308.21
655.00	25392.47
655.14	25333.96
655.29	25404.17
655.43	25483.75
655.57	25137.35
655.72	25411.20
655.86	25228.63
656.01	24933.73
656.15	24978.20
656.30	24926.71
656.44	24709.04
656.58	24961.81
656.73	24734.78
656.87	24936.07
657.01	24678.61
657.16	25036.71
657.30	25172.46
657.45	25120.97
657.59	24877.55
657.73	24645.84
657.88	25294.17
658.02	24917.34
658.16	24563.92
658.31	24879.89
658.45	24947.77
658.60	24535.84
658.74	24748.82
658.88	24418.81
659.03	24655.20
659.17	24587.33
659.31	24748.82
659.46	24910.32
659.60	24835.42
659.74	24713.72
659.89	24563.92
660.03	24709.04
660.17	24456.26
660.32	24432.85
660.46	24346.25
660.60	24046.66
660.74	24383.70
660.89	24217.52
661.03	24320.51
661.17	23946.02
661.32	24428.17
661.46	24219.86
661.60	24231.57
661.74	24261.99
661.89	24203.48
662.03	24109.86
662.17	24299.44
662.31	24034.96
662.46	23920.28
662.60	24177.73
662.74	23728.35
662.88	24009.22
663.03	23976.45
663.17	23679.20
663.31	23566.85
663.45	23601.96
663.60	23718.99
663.74	23700.26
663.88	23880.49
664.02	23929.64
664.17	23929.64
664.31	23763.46
664.45	23597.28
664.59	23555.15
664.73	23681.54
664.88	23594.94
665.02	23152.58
665.16	23222.80
665.30	22953.63
665.44	23431.10
665.59	23080.02
665.73	22904.48
665.87	23129.17
666.01	23274.29
666.15	23234.50
666.29	23145.56
666.44	23157.26
666.58	23208.75
666.72	22878.74
666.86	22871.72
667.00	23087.04
667.14	22991.08
667.28	23101.09
667.43	22862.35
667.57	23264.92
667.71	22766.39
667.85	22948.95
667.99	22845.97
668.13	22953.63
668.27	22635.32
668.41	22410.63
668.56	22607.23
668.70	22768.73
668.84	22604.89
668.98	22532.34
669.12	22778.09
669.26	22845.97
669.40	22541.70
669.54	22583.83
669.68	22338.07
669.82	22373.18
669.96	22192.96
670.10	22190.62
670.25	22548.72
670.39	22097.00
670.53	21977.63
670.67	21994.01
670.81	22019.76
670.95	21991.67
671.09	22228.07
671.23	22031.46
671.37	22167.21
671.51	22008.06
671.65	21846.56
671.79	21891.03
671.93	21846.56
672.07	21968.27
672.21	21729.53
672.35	21715.49
672.49	21788.05
672.63	21488.46
672.77	21266.11
672.91	21458.03
673.05	21607.83
673.19	21542.29
673.33	21451.01
673.47	21350.37
673.61	21233.34
673.75	21404.20
673.89	21406.54
674.03	21443.99
674.17	21085.89
674.31	21223.98
674.45	21385.47
674.59	21053.12
674.73	21088.23
674.87	20872.90
675.01	20915.03
675.15	20755.87
675.29	20814.38
675.43	20760.55
675.56	20760.55
675.70	20585.01
675.84	20776.94
675.98	20311.17
676.12	20690.34
676.26	20908.01
676.40	20727.78
676.54	20519.48
676.68	20568.63
676.82	20042.01
676.96	20039.67
677.10	20336.91
677.23	20119.24
677.37	19943.70
677.51	20067.75
677.65	20109.88
677.79	19662.84
677.93	19709.65
678.07	19747.10
678.21	19501.34
678.34	19723.69
678.48	19711.99
678.62	19627.73
678.76	19351.55
678.90	19391.34
679.04	19194.73
679.18	19480.28
679.31	19311.76
679.45	19080.05
679.59	19232.18
679.73	18759.39
679.87	18747.69
680.00	18740.67
680.14	19009.83
680.28	18740.67
680.42	18885.78
680.56	18878.76
680.70	18932.59
680.83	18834.29
680.97	18518.32
681.11	18532.36
681.25	18539.38
681.39	18930.25
681.52	18661.09
681.66	18420.02
681.80	18132.13
681.94	17977.65
682.07	18321.71
682.21	18019.78
682.35	18214.05
682.49	17846.58
682.62	17816.16
682.76	17778.71
682.90	17879.35
683.04	17963.61
683.17	17802.11
683.31	17837.22
683.45	17694.45
683.59	17813.82
683.72	17586.79
683.86	17685.09
684.00	17497.84
684.13	17436.99
684.27	17401.88
684.41	17378.48
684.55	17130.38
684.68	17216.98
684.82	17284.86
684.96	16905.69
685.09	16737.17
685.23	17027.40
685.37	16826.11
685.50	16725.47
685.64	17116.34
685.78	16786.32
685.91	16774.62
686.05	16919.73
686.19	16575.67
686.32	16659.93
686.46	16248.00
686.60	16512.48
686.73	16603.76
686.87	16248.00
687.01	16287.79
687.14	16154.38
687.28	15917.98
687.42	15969.48
687.55	15789.25
687.69	15836.06
687.82	15922.66
687.96	16189.49
688.10	16121.61
688.23	15812.66
688.37	15723.72
688.50	15534.14
688.64	15836.06
688.78	15651.16
688.91	15557.54
689.05	15714.36
689.18	15187.74
689.32	15295.40
689.46	15297.74
689.59	15501.37
689.73	15346.89
689.86	15295.40
690.00	15180.71
690.13	15300.08
690.27	15204.12
690.41	15066.03
690.54	14890.49
690.68	14813.25
690.81	15033.26
690.95	14939.64
691.08	14745.38
691.22	14899.85
691.35	14757.08
691.49	14647.07
691.62	14726.65
691.76	14541.75
691.89	14221.10
692.03	14211.73
692.16	14115.77
692.30	14054.92
692.43	14342.80
692.57	13846.61
692.70	14183.65
692.84	14075.98
692.97	14019.81
693.11	13954.27
693.24	13994.06
693.38	13949.59
693.51	13830.23
693.65	14005.77
693.78	13820.86
693.92	13600.85
694.05	13860.65
694.19	13692.13
694.32	13301.26
694.45	13537.66
694.59	13247.43
694.72	13378.50
694.86	13266.16
694.99	13193.60
695.13	13095.30
695.26	13081.25
695.39	13081.25
695.53	13062.53
695.66	12889.33
695.80	12760.60
695.93	12933.80
696.07	13039.12
696.20	12952.52
696.33	12905.71
696.47	12617.83
696.60	12800.39
696.73	12727.83
696.87	12617.83
697.00	12418.88
697.14	12631.87
697.27	12283.13
697.40	12215.26
697.54	12161.42
697.67	12025.67
697.80	12231.64
697.94	11913.33
698.07	11943.75
698.21	12028.01
698.34	11779.92
698.47	12011.63
698.61	12100.57
698.74	12004.61
698.87	11922.69
699.01	11861.84
699.14	11592.67
699.27	11639.48
699.40	11489.69
699.54	11719.06
699.67	11613.74
699.80	11358.62
699.94	11428.84
700.07	11550.54
700.20	11400.75
700.34	11241.59
700.47	11358.62
700.60	11173.72
700.73	11239.25
700.87	10932.64
701.00	11047.33
701.13	11105.84
701.26	10890.51
701.40	11211.17
701.53	10775.83
701.66	10918.60
701.79	10862.43
701.93	10633.05
702.06	10588.58
702.19	10567.52
702.32	10705.61
702.46	10572.20
702.59	10429.43
702.72	10256.23
702.85	10384.96
702.99	10373.25
703.12	10235.16
703.25	10396.66
703.38	10235.16
703.51	10370.91
703.65	10326.44
703.78	10429.43
703.91	10057.28
704.04	10104.09
704.17	10134.52
704.31	10080.69
704.44	10010.47
704.57	9750.67
704.70	9879.40
704.83	9481.51
704.96	9832.59
705.10	9844.29
705.23	9596.20
>>>>>End Processed Spectral Data<<<<<
