SpectraSuite Data File
++++++++++++++++++++++++++++++++++++
Date: Fri Oct 18 13:58:22 GMT-05:00 2013
User: bianchi
Dark Spectrum Present: No
Reference Spectrum Present: No
Number of Sampled Component Spectra: 1
Spectrometers: USB2+H05261
Integration Time (usec): 50000 (USB2+H05261)
Spectra Averaged: 1 (USB2+H05261)
Boxcar Smoothing: 0 (USB2+H05261)
Correct for Electrical Dark: No (USB2+H05261)
Strobe/Lamp Enabled: No (USB2+H05261)
Correct for Detector Non-linearity: No (USB2+H05261)
Correct for Stray Light: No (USB2+H05261)
Number of Pixels in Processed Spectrum: 2048
>>>>>Begin Processed Spectral Data<<<<<
365.73	0.00
365.92	0.00
366.12	0.00
366.32	0.00
366.52	0.00
366.72	0.00
366.91	0.00
367.11	0.00
367.31	0.00
367.51	0.00
367.70	0.00
367.90	0.00
368.10	0.00
368.30	0.00
368.49	0.00
368.69	0.00
368.89	0.00
369.09	0.00
369.28	0.00
369.48	0.00
369.68	0.00
369.87	0.00
370.07	0.00
370.27	0.00
370.47	4.68
370.66	105.32
370.86	131.07
371.06	159.16
371.25	114.69
371.45	163.84
371.65	168.52
371.84	163.84
372.04	166.18
372.24	205.97
372.44	177.88
372.63	238.73
372.83	229.37
373.03	212.99
373.22	217.67
373.42	262.14
373.62	189.58
373.81	250.44
374.01	257.46
374.21	187.24
374.40	210.65
374.60	173.20
374.79	294.91
374.99	222.35
375.19	231.71
375.38	266.82
375.58	217.67
375.78	259.80
375.97	337.04
376.17	248.10
376.37	220.01
376.56	222.35
376.76	306.61
376.95	182.56
377.15	220.01
377.35	229.37
377.54	229.37
377.74	304.27
377.93	229.37
378.13	224.69
378.33	238.73
378.52	318.31
378.72	285.55
378.91	245.76
379.11	236.39
379.31	332.36
379.50	198.95
379.70	308.95
379.89	290.23
380.09	245.76
380.28	308.95
380.48	346.40
380.68	301.93
380.87	294.91
381.07	292.57
381.26	299.59
381.46	250.44
381.65	334.70
381.85	252.78
382.04	297.25
382.24	292.57
382.43	311.29
382.63	362.78
382.83	367.46
383.02	337.04
383.22	348.74
383.41	367.46
383.61	360.44
383.80	360.44
384.00	362.78
384.19	437.68
384.39	362.78
384.58	365.12
384.78	437.68
384.97	393.21
385.17	379.17
385.36	355.76
385.56	402.57
385.75	355.76
385.95	355.76
386.14	428.32
386.34	341.72
386.53	341.72
386.72	435.34
386.92	461.09
387.11	372.15
387.31	414.27
387.50	472.79
387.70	428.32
387.89	442.36
388.09	519.60
388.28	423.64
388.48	421.30
388.67	414.27
388.86	454.06
389.06	470.45
389.25	433.00
389.45	447.04
389.64	512.58
389.84	531.30
390.03	463.43
390.22	482.15
390.42	517.26
390.61	414.27
390.81	428.32
391.00	510.24
391.19	435.34
391.39	461.09
391.58	472.79
391.78	547.69
391.97	526.62
392.16	559.39
392.36	580.45
392.55	411.93
392.75	615.56
392.94	538.32
393.13	561.73
393.33	547.69
393.52	470.45
393.71	545.34
393.91	613.22
394.10	552.37
394.29	531.30
394.49	571.09
394.68	594.50
394.88	615.56
395.07	589.82
395.26	585.13
395.46	629.60
395.65	564.07
395.84	603.86
396.04	660.03
396.23	631.94
396.42	636.63
396.62	610.88
396.81	580.45
397.00	582.79
397.19	648.33
397.39	622.58
397.58	697.48
397.77	713.86
397.97	648.33
398.16	606.20
398.35	624.92
398.55	706.84
398.74	697.48
398.93	812.17
399.12	704.50
399.32	706.84
399.51	725.57
399.70	777.06
399.90	784.08
400.09	777.06
400.28	713.86
400.47	734.93
400.67	688.12
400.86	732.59
401.05	842.59
401.24	805.14
401.44	772.38
401.63	805.14
401.82	826.21
402.01	744.29
402.21	805.14
402.40	819.19
402.59	812.17
402.78	861.32
402.97	933.87
403.17	901.11
403.36	903.45
403.55	866.00
403.74	884.72
403.93	898.77
404.13	887.06
404.32	931.53
404.51	880.04
404.70	908.13
404.89	933.87
405.09	875.36
405.28	1027.50
405.47	933.87
405.66	1074.31
405.85	936.21
406.05	898.77
406.24	947.92
406.43	1043.88
406.62	983.02
406.81	1139.84
407.00	992.39
407.20	973.66
407.39	973.66
407.58	1076.65
407.77	1111.75
407.96	1034.52
408.15	1156.22
408.34	1088.35
408.54	1102.39
408.73	1109.41
408.92	1104.73
409.11	1060.26
409.30	1111.75
409.49	1104.73
409.68	1149.20
409.87	1186.65
410.07	1125.80
410.26	1135.16
410.45	1184.31
410.64	1228.78
410.83	1291.98
411.02	1221.76
411.21	1315.38
411.40	1177.29
411.59	1327.08
411.78	1249.85
411.98	1177.29
412.17	1238.14
412.36	1252.19
412.55	1247.51
412.74	1261.55
412.93	1273.25
413.12	1249.85
413.31	1352.83
413.50	1376.24
413.69	1277.93
413.88	1558.80
414.07	1416.02
414.26	1504.96
414.45	1507.30
414.64	1465.18
414.83	1593.90
415.02	1575.18
415.22	1490.92
415.41	1586.88
415.60	1504.96
415.79	1460.49
415.98	1659.44
416.17	1727.32
416.36	1675.82
416.55	1577.52
416.74	1619.65
416.93	1624.33
417.12	1713.27
417.31	1666.46
417.50	1701.57
417.69	1671.14
417.88	1743.70
418.07	1661.78
418.26	1767.10
418.45	1750.72
418.64	1816.26
418.83	1771.79
419.02	1806.89
419.21	1696.89
419.39	1659.44
419.58	1858.39
419.77	1860.73
419.96	1863.07
420.15	1851.36
420.34	1771.79
420.53	1959.03
420.72	1863.07
420.91	1898.17
421.10	1865.41
421.29	1989.46
421.48	2003.50
421.67	1907.54
421.86	1954.35
422.05	1895.83
422.24	1987.11
422.43	1996.48
422.61	2010.52
422.80	2026.90
422.99	2062.01
423.18	2040.95
423.37	2097.12
423.56	2066.69
423.75	1977.75
423.94	2010.52
424.13	1844.34
424.32	1975.41
424.50	1966.05
424.69	2008.18
424.88	2064.35
425.07	1963.71
425.26	2054.99
425.45	1994.14
425.64	2054.99
425.83	2029.24
426.01	2104.14
426.20	2101.80
426.39	2223.51
426.58	2043.29
426.77	2092.44
426.96	1947.33
427.15	2045.63
427.33	2092.44
427.52	2052.65
427.71	2143.93
427.90	2160.31
428.09	2125.21
428.28	2150.95
428.46	2197.76
428.65	2181.38
428.84	2195.42
429.03	2202.44
429.22	2125.21
429.40	2263.30
429.59	2305.43
429.78	2083.08
429.97	2111.16
430.16	2160.31
430.34	2232.87
430.53	2270.32
430.72	2235.21
430.91	2305.43
431.10	2157.97
431.28	2324.15
431.47	2415.43
431.66	2375.64
431.85	2352.24
432.03	2373.30
432.22	2541.82
432.41	2471.61
432.60	2516.08
432.79	2361.60
432.97	2385.01
433.16	2551.18
433.35	2509.05
433.54	2525.44
433.72	2553.52
433.91	2450.54
434.10	2464.58
434.28	2551.18
434.47	2506.71
434.66	2499.69
434.85	2647.15
435.03	2637.78
435.22	2605.02
435.41	2661.19
435.59	2513.74
435.78	2602.68
435.97	2712.68
436.16	2595.65
436.34	2619.06
436.53	2696.30
436.72	2799.28
436.90	2558.21
437.09	2752.47
437.28	2574.59
437.46	2633.10
437.65	2691.62
437.84	2820.35
438.02	2696.30
438.21	2846.09
438.40	2768.85
438.58	2876.52
438.77	3028.65
438.96	2841.41
439.14	2909.29
439.33	3000.57
439.52	2960.78
439.70	2867.16
439.89	3005.25
440.08	3026.31
440.26	3073.12
440.45	2974.82
440.63	3023.97
440.82	3126.96
441.01	3070.78
441.19	3145.68
441.38	3148.02
441.57	3122.27
441.75	3229.94
441.94	3173.77
442.12	3290.79
442.31	3241.64
442.50	3353.99
442.68	3370.37
442.87	3309.52
443.05	3255.69
443.24	3431.23
443.43	3363.35
443.61	3421.86
443.80	3368.03
443.98	3375.05
444.17	3192.49
444.35	3346.97
444.54	3417.18
444.73	3398.46
444.91	3499.10
445.10	3515.48
445.28	3417.18
445.47	3506.12
445.65	3407.82
445.84	3454.63
446.02	3456.97
446.21	3459.31
446.39	3492.08
446.58	3501.44
446.77	3346.97
446.95	3473.36
447.14	3438.25
447.32	3517.83
447.51	3506.12
447.69	3543.57
447.88	3447.61
448.06	3475.70
448.25	3529.53
448.43	3630.17
448.62	3524.85
448.80	3548.25
448.99	3520.17
449.17	3595.06
449.36	3463.99
449.54	3714.43
449.73	3676.98
449.91	3574.00
450.10	3740.18
450.28	3726.13
450.46	3873.59
450.65	3627.83
450.83	3794.01
451.02	3529.53
451.20	3789.33
451.39	3754.22
451.57	3822.09
451.76	3786.99
451.94	3812.73
452.13	3934.44
452.31	3822.09
452.49	3754.22
452.68	3805.71
452.86	3934.44
453.05	3925.08
453.23	3946.14
453.42	3829.12
453.60	3868.91
453.78	3887.63
453.97	3817.41
454.15	4025.72
454.34	3887.63
454.52	3875.93
454.70	4049.13
454.89	4025.72
455.07	4086.58
455.26	4014.02
455.44	4227.01
455.62	4091.26
455.81	4271.48
455.99	4201.26
456.17	4109.98
456.36	4189.56
456.54	4189.56
456.73	4154.45
456.91	4262.12
457.09	4299.56
457.28	4348.72
457.46	4280.84
457.64	4318.29
457.83	4313.61
458.01	4266.80
458.19	4517.23
458.38	4355.74
458.56	4540.64
458.74	4376.80
458.93	4369.78
459.11	4400.21
459.29	4430.63
459.48	4447.02
459.66	4416.59
459.84	4631.92
460.03	4547.66
460.21	4496.17
460.39	4496.17
460.57	4500.85
460.76	4662.35
460.94	4681.07
461.12	4582.77
461.31	4545.32
461.49	4723.20
461.67	4533.62
461.85	4730.22
462.04	4636.60
462.22	4751.29
462.40	4765.33
462.59	4784.06
462.77	4620.22
462.95	4802.78
463.13	4746.61
463.32	4823.84
463.50	4917.47
463.68	4870.65
463.86	4884.70
464.05	4667.03
464.23	4840.23
464.41	5025.13
464.59	4777.03
464.78	4961.94
464.96	4994.70
465.14	4922.15
465.32	4847.25
465.50	5055.56
465.69	5020.45
465.87	4788.74
466.05	4980.66
466.23	5036.83
466.41	5111.73
466.60	5071.94
466.78	5095.35
466.96	5041.51
467.14	5111.73
467.32	5034.49
467.51	5055.56
467.69	5008.75
467.87	5102.37
468.05	5144.50
468.23	5076.62
468.41	5121.09
468.60	5181.95
468.78	5132.79
468.96	5177.26
469.14	5298.97
469.32	5423.02
469.50	5207.69
469.69	5242.80
469.87	5483.88
470.05	5383.23
470.23	5413.66
470.41	5476.85
470.59	5373.87
470.77	5451.11
470.95	5467.49
471.14	5568.13
471.32	5474.51
471.50	5692.18
471.68	5589.20
471.86	5533.03
472.04	5598.56
472.22	5776.44
472.40	5528.35
472.58	5638.35
472.77	5743.67
472.95	5701.54
473.13	5975.39
473.31	5724.95
473.49	5713.25
473.67	5797.51
473.85	5706.23
474.03	6001.13
474.21	6026.88
474.39	6148.59
474.57	6085.39
474.75	6193.06
474.93	6111.14
475.12	6164.97
475.30	6218.80
475.48	6223.48
475.66	6291.36
475.84	6368.60
476.02	6389.66
476.20	6399.02
476.38	6443.49
476.56	6497.33
476.74	6668.19
476.92	6462.22
477.10	6497.33
477.28	6579.25
477.46	6642.44
477.64	6806.28
477.82	6672.87
478.00	7042.67
478.18	7026.29
478.36	6956.07
478.54	6988.84
478.72	7094.16
478.90	7084.80
479.08	6944.37
479.26	7403.11
479.44	7309.49
479.62	7201.83
479.80	7328.22
479.98	7407.80
480.16	7485.03
480.34	7283.75
480.52	7604.40
480.70	7756.54
480.88	7625.47
481.06	7559.93
481.24	7660.57
481.41	7803.35
481.59	7793.98
481.77	7922.71
481.95	7981.23
482.13	7873.56
482.31	8013.99
482.49	8149.75
482.67	8266.77
482.85	8278.47
483.03	8552.32
483.21	8500.83
483.39	8517.21
483.57	8549.98
483.74	8753.60
483.92	8868.29
484.10	8648.28
484.28	8856.59
484.46	9018.08
484.64	9149.15
484.82	9053.19
485.00	8952.55
485.18	9247.46
485.35	9415.98
485.53	9317.67
485.71	9495.55
485.89	9591.52
486.07	9455.76
486.25	9935.57
486.43	9687.48
486.61	9675.77
486.78	9734.29
486.96	9958.98
487.14	9858.34
487.32	10052.60
487.50	10293.68
487.68	10204.74
487.85	10452.83
488.03	10380.28
488.21	10761.78
488.39	10684.55
488.57	10686.89
488.75	10623.69
488.92	11007.54
489.10	10883.49
489.28	10869.45
489.46	11063.71
489.64	10991.16
489.81	11445.22
489.99	11124.57
490.17	11410.11
490.35	11417.13
490.53	11386.71
490.70	11508.41
490.88	11496.71
491.06	11756.51
491.24	11653.53
491.41	11742.47
491.59	11852.47
491.77	12049.08
491.95	12182.49
492.13	12053.76
492.30	12292.49
492.48	12198.87
492.66	12308.88
492.84	12397.82
493.01	12580.38
493.19	12533.57
493.37	12774.64
493.54	12397.82
493.72	12720.81
493.90	12699.75
494.08	12847.20
494.25	13137.43
494.43	13240.41
494.61	13327.01
494.79	13376.16
494.96	13324.67
495.14	13458.08
495.32	13483.83
495.49	13535.32
495.67	13659.37
495.85	13748.31
496.02	13706.18
496.20	13991.72
496.38	13989.38
496.55	13907.46
496.73	14235.14
496.91	14181.31
497.09	14183.65
497.26	14239.82
497.44	14410.68
497.62	14349.82
497.79	14408.34
497.97	14267.91
498.14	14654.09
498.32	15089.43
498.50	14766.44
498.67	14876.44
498.85	14892.83
499.03	14932.62
499.20	15009.86
499.38	15002.83
499.56	15033.26
499.73	15318.81
499.91	15274.34
500.08	15304.76
500.26	15213.48
500.44	15779.89
500.61	15606.69
500.79	15463.92
500.97	15707.34
501.14	15791.59
501.32	15709.68
501.49	15899.26
501.67	15854.79
501.84	15995.22
502.02	16070.12
502.20	15875.85
502.37	16016.29
502.55	15915.64
502.72	16189.49
502.90	16191.83
503.07	16100.55
503.25	16259.70
503.43	16259.70
503.60	16341.62
503.78	16533.54
503.95	16365.03
504.13	16482.05
504.30	16290.13
504.48	16496.10
504.65	16849.52
504.83	16898.67
505.01	16945.48
505.18	16783.98
505.36	16992.29
505.53	16723.13
505.71	17041.44
505.88	16989.95
506.06	17060.16
506.23	17090.59
506.41	17102.29
506.58	17181.87
506.76	17179.53
506.93	17458.06
507.11	17497.84
507.28	17427.63
507.46	17572.74
507.63	17518.91
507.81	17479.12
507.98	17610.19
508.16	18148.51
508.33	17752.96
508.50	17792.75
508.68	17956.59
508.85	18015.10
509.03	17961.27
509.20	18216.39
509.38	18078.30
509.55	18242.14
509.73	18293.63
509.90	18483.21
510.08	18132.13
510.25	18352.14
510.42	18457.46
510.60	18946.64
510.77	18836.63
510.95	18735.99
511.12	18473.85
511.30	18845.99
511.47	18738.33
511.64	18923.23
511.82	19054.30
511.99	18960.68
512.17	19084.73
512.34	19035.58
512.51	19180.69
512.69	19250.91
512.86	19070.68
513.04	19405.38
513.21	19194.73
513.38	19332.82
513.56	19499.00
513.73	19309.42
513.90	19398.36
514.08	19524.75
514.25	19438.15
514.43	19646.46
514.60	19587.94
514.77	19964.77
514.95	20212.87
515.12	19854.76
515.29	19946.05
515.47	20290.10
515.64	20121.59
515.81	20060.73
515.99	20053.71
516.16	20245.63
516.33	20510.11
516.51	20477.35
516.68	20456.28
516.85	20119.24
517.03	20383.73
517.20	20140.31
517.37	20294.79
517.54	20734.81
517.72	20423.51
517.89	20507.77
518.06	20365.00
518.24	20645.87
518.41	20524.16
518.58	20814.38
518.75	20751.19
518.93	20683.31
519.10	20816.72
519.27	20910.35
519.45	20716.08
519.62	20989.92
519.79	20734.81
519.96	20865.88
520.14	21671.02
520.31	21259.09
520.48	21254.40
520.65	21319.94
520.83	21701.45
521.00	21355.05
521.17	21046.10
521.34	21191.21
521.52	21120.99
521.69	21427.60
521.86	21642.93
522.03	21785.71
522.20	21834.86
522.38	21900.39
522.55	21942.52
522.72	21497.82
522.89	21518.89
523.07	21942.52
523.24	21837.20
523.41	22003.38
523.58	21783.37
523.75	22085.30
523.92	22279.56
524.10	22480.85
524.27	22232.75
524.44	22492.55
524.61	22352.12
524.78	22464.46
524.96	22576.81
525.13	22209.34
525.30	22588.51
525.47	22260.84
525.64	22508.93
525.81	22469.14
525.98	22567.45
526.16	22838.95
526.33	22810.86
526.50	22892.78
526.67	22649.36
526.84	22738.30
527.01	22869.37
527.18	22916.19
527.36	23307.05
527.53	23222.80
527.70	23510.68
527.87	23555.15
528.04	23332.80
528.21	23098.75
528.38	23061.30
528.55	23510.68
528.72	23309.40
528.89	23276.63
529.07	23407.70
529.24	23185.35
529.41	23538.77
529.58	23332.80
529.75	23768.14
529.92	23491.96
530.09	23803.25
530.26	23718.99
530.43	23730.69
530.60	23431.10
530.77	23559.83
530.94	23679.20
531.11	23733.03
531.28	23796.23
531.46	23702.61
531.63	24194.12
531.80	24168.37
531.97	23983.47
532.14	24144.97
532.31	24065.39
532.48	24081.77
532.65	24046.66
532.82	23985.81
532.99	24224.54
533.16	24194.12
533.33	24374.34
533.50	24592.01
533.67	24205.82
533.84	23824.31
534.01	24552.22
534.18	24348.59
534.35	24624.78
534.52	24229.23
534.69	24638.82
534.86	24842.45
535.03	24128.58
535.20	24879.89
535.37	24783.93
535.54	24601.37
535.71	24872.87
535.88	24470.30
536.05	24833.08
536.22	25113.95
536.38	25207.57
536.55	24716.06
536.72	25048.41
536.89	24709.04
537.06	25050.75
537.23	25057.78
537.40	25151.40
537.57	25055.43
537.74	24875.21
537.91	25411.20
538.08	25413.54
538.25	25249.70
538.42	25345.66
538.59	25139.69
538.75	25310.55
538.92	25322.26
539.09	25109.27
539.26	25600.78
539.43	25605.46
539.60	25869.94
539.77	25549.29
539.94	25465.03
540.11	25558.65
540.28	25521.20
540.44	25523.54
540.61	25191.19
540.78	25195.87
540.95	25874.62
541.12	25415.88
541.29	25589.08
541.46	25502.48
541.62	25727.17
541.79	25792.70
541.96	25240.34
542.13	25757.60
542.30	25851.22
542.47	26197.62
542.63	26188.25
542.80	26082.93
542.97	26242.09
543.14	26038.46
543.31	26270.17
543.48	25900.37
543.64	26480.82
543.81	26394.22
543.98	26288.90
544.15	26576.78
544.32	26410.60
544.48	26691.47
544.65	26419.97
544.82	26431.67
544.99	26579.12
545.16	26448.05
545.32	26436.35
545.49	26876.37
545.66	27044.89
545.83	26977.01
546.00	26913.82
546.16	26831.90
546.33	26759.34
546.50	26597.85
546.67	26691.47
546.83	26450.39
547.00	26677.43
547.17	27164.26
547.34	26974.67
547.50	26874.03
547.67	26874.03
547.84	26815.52
548.00	27314.05
548.17	27285.97
548.34	26747.64
548.51	27220.43
548.67	27110.43
548.84	27452.14
549.01	26991.06
549.18	27473.21
549.34	26859.99
549.51	27264.90
549.68	26874.03
549.84	27145.53
550.01	27194.68
550.18	27154.90
550.34	27300.01
550.51	27667.47
550.68	27466.19
550.84	27058.93
551.01	27386.61
551.18	27379.59
551.34	27267.24
551.51	27330.44
551.68	27335.12
551.84	27873.44
552.01	27859.40
552.18	27768.12
552.34	28121.54
552.51	27835.99
552.68	27424.06
552.84	27770.46
553.01	28086.43
553.18	27381.93
553.34	27704.92
553.51	27803.22
553.67	28056.00
553.84	28477.30
554.01	27875.78
554.17	28226.86
554.34	27648.75
554.51	27882.80
554.67	27854.72
554.84	28109.83
555.00	27922.59
555.17	28184.73
555.33	27934.29
555.50	28276.01
555.67	28222.18
555.83	28088.77
556.00	28158.99
556.16	28236.22
556.33	28203.46
556.50	28226.86
556.66	28594.32
556.83	28386.02
556.99	28336.87
557.16	28245.58
557.32	28353.25
557.49	28355.59
557.65	27866.42
557.82	28561.56
557.98	28606.03
558.15	28205.80
558.32	28716.03
558.48	28334.53
558.65	28678.58
558.81	28472.62
558.98	28648.16
559.14	28278.35
559.31	28381.34
559.47	28641.14
559.64	28875.19
559.80	28624.75
559.97	28744.12
560.13	28774.55
560.30	28561.56
560.46	28898.59
560.63	28416.44
560.79	28987.53
560.96	28847.10
561.12	28912.64
561.29	29022.64
561.45	28458.57
561.61	28751.14
561.78	28680.92
561.94	29048.39
562.11	29020.30
562.27	28964.13
562.44	28479.64
562.60	28699.65
562.77	28912.64
562.93	28954.77
563.10	28837.74
563.26	28844.76
563.42	29181.80
563.59	28781.57
563.75	28891.57
563.92	28631.77
564.08	28964.13
564.24	28865.83
564.41	29090.52
564.57	28720.71
564.74	28996.90
564.90	29050.73
565.07	29188.82
565.23	29160.73
565.39	28943.06
565.56	29296.49
565.72	29247.33
565.88	28950.09
566.05	28926.68
566.21	28968.81
566.38	29134.99
566.54	28797.95
566.70	29305.85
566.87	29362.02
567.03	29310.53
567.19	29493.09
567.36	29448.62
567.52	29017.96
567.68	29500.11
567.85	29205.20
568.01	29301.17
568.17	28793.27
568.34	29383.09
568.50	29362.02
568.66	29570.33
568.83	29619.48
568.99	29502.45
569.15	29298.83
569.32	29198.18
569.48	29303.51
569.64	29490.75
569.81	29647.57
569.97	29308.19
570.13	29596.07
570.30	29378.40
570.46	29516.50
570.62	29249.67
570.78	29355.00
570.95	29156.05
571.11	29284.78
571.27	29291.80
571.43	29095.20
571.60	29486.07
571.76	29355.00
571.92	29420.53
572.09	29661.61
572.25	29872.26
572.41	29532.88
572.57	29528.20
572.74	29813.74
572.90	29727.14
573.06	29696.72
573.22	29560.97
573.38	29539.90
573.55	29151.37
573.71	29736.51
573.87	29745.87
574.03	29235.63
574.20	29563.31
574.36	29436.92
574.52	29883.96
574.68	29699.06
574.84	29507.13
575.01	29649.91
575.17	29879.28
575.33	29631.18
575.49	29584.37
575.65	29701.40
575.82	29659.27
575.98	29895.66
576.14	30012.69
576.30	29624.16
576.46	29371.38
576.62	29146.69
576.79	30019.71
576.95	29614.80
577.11	29830.13
577.27	29516.50
577.43	29713.10
577.59	29954.18
577.75	29696.72
577.92	29476.71
578.08	29663.95
578.24	29706.08
578.40	29841.83
578.56	29881.62
578.72	29900.34
578.88	29858.21
579.04	30143.76
579.21	30059.50
579.37	29474.37
579.53	29991.62
579.69	29221.59
579.85	29865.24
580.01	29785.66
580.17	29198.18
580.33	29851.19
580.49	29476.71
580.65	29572.67
580.82	30040.78
580.98	29577.35
581.14	29682.67
581.30	29942.47
581.46	29652.25
581.62	29713.10
581.78	29539.90
581.94	29762.25
582.10	29610.12
582.26	29663.95
582.42	29675.65
582.58	29216.91
582.74	30066.52
582.90	30115.67
583.06	30148.44
583.22	29612.46
583.38	29687.36
583.54	29809.06
583.70	29893.32
583.86	29399.47
584.02	29425.22
584.18	29865.24
584.34	29757.57
584.50	29972.90
584.66	30008.01
584.82	29949.50
584.98	29860.55
585.14	30101.63
585.30	29638.20
585.46	30024.39
585.62	29579.69
585.78	29907.37
585.94	29434.58
586.10	29593.73
586.26	29745.87
586.42	30274.83
586.58	30127.38
586.74	29890.98
586.90	29818.42
587.06	29710.76
587.22	29780.98
587.38	29813.74
587.54	30494.84
587.70	29965.88
587.86	30272.49
588.02	30288.87
588.18	30583.78
588.34	29926.09
588.49	30235.04
588.65	30235.04
588.81	29846.51
588.97	30190.57
589.13	29483.73
589.29	30033.75
589.45	29862.90
589.61	30265.47
589.77	30316.96
589.93	30204.61
590.08	30321.64
590.24	30368.45
590.40	30403.56
590.56	30073.54
590.72	30155.46
590.88	29986.94
591.04	29741.19
591.20	30387.18
591.35	30050.14
591.51	30504.20
591.67	30429.30
591.83	30323.98
591.99	30387.18
592.15	30103.97
592.31	30455.05
592.46	30221.00
592.62	29780.98
592.78	30249.08
592.94	30164.82
593.10	30026.73
593.26	29912.05
593.41	30242.06
593.57	30078.22
593.73	30323.98
593.89	30373.13
594.05	30654.00
594.20	30218.66
594.36	30274.83
594.52	30134.40
594.68	30352.07
594.84	30099.29
594.99	30436.33
595.15	30134.40
595.31	30419.94
595.47	30043.12
595.62	30539.31
595.78	30480.80
595.94	30155.46
596.10	30738.26
596.25	30235.04
596.41	30221.00
596.57	30110.99
596.73	30256.11
596.88	30178.87
597.04	30600.16
597.20	30309.94
597.36	30206.95
597.51	30419.94
597.67	30302.92
597.83	30359.09
597.99	30417.60
598.14	30185.89
598.30	30471.43
598.46	30473.78
598.61	30551.01
598.77	30134.40
598.93	30352.07
599.09	30471.43
599.24	30654.00
599.40	30693.79
599.56	30871.67
599.71	29949.50
599.87	30639.95
600.03	30340.36
600.18	30022.05
600.34	30284.19
600.50	30382.49
600.65	30480.80
600.81	30298.23
600.97	30895.07
601.12	30408.24
601.28	30473.78
601.44	30679.74
601.59	30651.66
601.75	30263.13
601.91	30675.06
602.06	30197.59
602.22	30501.86
602.37	30319.30
602.53	30471.43
602.69	30696.13
602.84	30670.38
603.00	30707.83
603.16	30551.01
603.31	30911.46
603.47	30707.83
603.62	30532.29
603.78	30443.35
603.94	30246.74
604.09	30218.66
604.25	30630.59
604.40	30263.13
604.56	30328.66
604.71	30356.75
604.87	30410.58
605.03	30487.82
605.18	30349.73
605.34	30391.86
605.49	29998.65
605.65	30642.29
605.80	30160.14
605.96	30274.83
606.12	30323.98
606.27	30213.98
606.43	30237.38
606.58	30492.50
606.74	30424.62
606.89	30239.72
607.05	30637.61
607.20	30623.57
607.36	30345.05
607.51	30586.12
607.67	29986.94
607.82	30265.47
607.98	30288.87
608.13	30380.15
608.29	30286.53
608.44	30263.13
608.60	30541.65
608.75	30623.57
608.91	30558.03
609.06	30253.76
609.22	30567.40
609.37	29860.55
609.53	30387.18
609.68	29809.06
609.84	30443.35
609.99	30024.39
610.15	30108.65
610.30	30246.74
610.46	30321.64
610.61	30265.47
610.76	30101.63
610.92	30429.30
611.07	30068.86
611.23	29984.60
611.38	29958.86
611.54	29905.02
611.69	29734.17
611.84	29766.93
612.00	30181.21
612.15	29984.60
612.31	30429.30
612.46	30141.42
612.62	30288.87
612.77	30352.07
612.92	30534.63
613.08	29991.62
613.23	30157.80
613.39	30068.86
613.54	29776.30
613.69	29806.72
613.85	29830.13
614.00	29806.72
614.15	29937.79
614.31	29610.12
614.46	30139.08
614.62	29731.83
614.77	29851.19
614.92	30012.69
615.08	29827.79
615.23	29429.90
615.38	29872.26
615.54	29481.39
615.69	29596.07
615.84	30019.71
616.00	30216.32
616.15	29766.93
616.30	29914.39
616.46	29465.00
616.61	29677.99
616.76	29773.95
616.92	29495.43
617.07	29633.52
617.22	29514.16
617.37	29528.20
617.53	29486.07
617.68	29528.20
617.83	29209.89
617.99	29207.55
618.14	29656.93
618.29	29408.83
618.45	29525.86
618.60	29607.78
618.75	29563.31
618.90	29560.97
619.06	29855.87
619.21	29097.54
619.36	29202.86
619.51	29252.02
619.67	29336.27
619.82	29090.52
619.97	29134.99
620.12	28758.16
620.28	29170.10
620.43	29261.38
620.58	29460.32
620.73	29631.18
620.89	29116.26
621.04	29689.70
621.19	29284.78
621.34	29315.21
621.49	28790.93
621.65	29326.91
621.80	29439.26
621.95	28994.56
622.10	29200.52
622.25	29006.26
622.41	29041.37
622.56	29163.08
622.71	29418.19
622.86	29200.52
623.01	28891.57
623.16	28982.85
623.32	28858.81
623.47	29259.04
623.62	28905.62
623.77	29006.26
623.92	29223.93
624.07	28767.52
624.23	29069.45
624.38	29282.44
624.53	28919.66
624.68	28835.40
624.83	28720.71
624.98	28687.95
625.13	28952.43
625.29	28835.40
625.44	28582.62
625.59	28823.70
625.74	28854.12
625.89	28528.79
626.04	28336.87
626.19	28568.58
626.34	28470.28
626.49	28086.43
626.65	28554.54
626.80	28730.08
626.95	28676.24
627.10	28407.08
627.25	28587.30
627.40	28568.58
627.55	28531.13
627.70	28470.28
627.85	28428.15
628.00	28294.74
628.15	28414.10
628.30	28074.73
628.45	27917.91
628.60	28194.09
628.76	28386.02
628.91	28465.60
629.06	28364.95
629.21	28748.80
629.36	28460.91
629.51	27981.10
629.66	28210.48
629.81	28133.24
629.96	27995.15
630.11	28149.62
630.26	28252.61
630.41	27810.25
630.56	28301.76
630.71	28058.34
630.86	28060.68
631.01	28294.74
631.16	28170.69
631.31	28231.54
631.46	27871.10
631.61	28435.17
631.76	28177.71
631.91	28173.03
632.06	27632.36
632.21	27957.70
632.36	27805.56
632.51	27779.82
632.66	27772.80
632.81	27711.94
632.96	27913.23
633.10	27805.56
633.25	28318.14
633.40	28388.36
633.55	27896.85
633.70	27674.49
633.85	27309.37
634.00	27765.78
634.15	27644.07
634.30	27513.00
634.45	27618.32
634.60	27786.84
634.75	27564.49
634.90	27693.22
635.05	27896.85
635.19	27896.85
635.34	27583.21
635.49	27559.81
635.64	27866.42
635.79	27424.06
635.94	27487.25
636.09	27569.17
636.24	27335.12
636.39	27211.07
636.53	27264.90
636.68	27370.22
636.83	27559.81
636.98	27440.44
637.13	27346.82
637.28	27552.79
637.43	27454.48
637.57	27620.66
637.72	27381.93
637.87	27328.10
638.02	27201.71
638.17	27168.94
638.32	26920.84
638.46	27304.69
638.61	27136.17
638.76	26852.97
638.91	26869.35
639.06	26679.77
639.20	26864.67
639.35	27213.41
639.50	27218.09
639.65	27646.41
639.80	27175.96
639.94	27054.25
640.09	27122.13
640.24	27182.98
640.39	26979.36
640.54	26658.70
640.68	27068.30
640.83	26836.58
640.98	26745.30
641.13	26338.05
641.27	26876.37
641.42	27012.12
641.57	27014.46
641.72	27012.12
641.86	26677.43
642.01	26822.54
642.16	26647.00
642.31	26183.57
642.45	26792.11
642.60	26361.45
642.75	26380.18
642.90	26529.97
643.04	26562.74
643.19	26590.83
643.34	26574.44
643.48	26761.69
643.63	26403.58
643.78	26867.01
643.93	26698.49
644.07	26927.86
644.22	26843.60
644.37	26536.99
644.51	26609.55
644.66	26909.14
644.81	26267.83
644.95	26600.19
645.10	26321.66
645.25	26288.90
645.39	26309.96
645.54	26597.85
645.69	26452.73
645.83	26675.09
645.98	26527.63
646.13	26197.62
646.27	26745.30
646.42	26771.05
646.57	26466.78
646.71	26434.01
646.86	26445.71
647.00	26265.49
647.15	26019.74
647.30	26160.17
647.44	26242.09
647.59	26174.21
647.74	26073.57
647.88	26302.94
648.03	26230.38
648.17	26328.69
648.32	26424.65
648.47	26115.70
648.61	25879.30
648.76	26639.98
648.90	26436.35
649.05	26244.43
649.20	26075.91
649.34	26223.36
649.49	25727.17
649.63	25806.75
649.78	25734.19
649.92	25736.53
650.07	25930.80
650.21	25902.71
650.36	26153.15
650.51	25544.61
650.65	26132.08
650.80	26019.74
650.94	25881.64
651.09	25687.38
651.23	25558.65
651.38	25806.75
651.52	25631.21
651.67	25811.43
651.81	25778.66
651.96	25394.81
652.10	25717.81
652.25	25818.45
652.39	25867.60
652.54	25837.17
652.68	25668.66
652.83	25673.34
652.97	25731.85
653.12	25481.41
653.26	25689.72
653.41	25448.64
653.55	25568.01
653.70	25273.10
653.84	25582.06
653.99	25249.70
654.13	25322.26
654.27	25256.72
654.42	25514.18
654.56	25631.21
654.71	25582.06
654.85	25649.93
655.00	25230.98
655.14	25476.73
655.29	25364.39
655.43	25476.73
655.57	25282.47
655.72	25343.32
655.86	25085.86
656.01	25397.15
656.15	25472.05
656.30	24610.73
656.44	25312.89
656.58	25125.65
656.73	25216.93
656.87	25259.06
657.01	25109.27
657.16	25373.75
657.30	25427.58
657.45	25048.41
657.59	25209.91
657.73	24819.04
657.88	24596.69
658.02	24805.00
658.16	24915.00
658.31	24788.61
658.45	24833.08
658.60	24989.90
658.74	24720.74
658.88	24521.79
659.03	25013.31
659.17	24819.04
659.31	25055.43
659.46	24734.78
659.60	25015.65
659.74	24786.27
659.89	24636.48
660.03	24496.05
660.17	24526.47
660.32	24561.58
660.46	24573.28
660.60	24372.00
660.74	24505.41
660.89	24170.71
661.03	24222.20
661.17	24372.00
661.32	24046.66
661.46	24245.61
661.60	24170.71
661.74	24676.27
661.89	24531.15
662.03	24460.94
662.17	24269.01
662.31	24065.39
662.46	23992.83
662.60	24013.90
662.74	24224.54
662.88	24037.30
663.03	24034.96
663.17	24070.07
663.31	24011.56
663.45	23484.94
663.60	24032.62
663.74	23882.83
663.88	23840.70
664.02	23557.49
664.17	24135.60
664.31	23405.36
664.45	23960.06
664.59	23903.89
664.73	23520.04
664.88	23651.11
665.02	23339.82
665.16	23328.12
665.30	23241.52
665.44	23414.72
665.59	23239.18
665.73	23016.83
665.87	22948.95
666.01	23370.25
666.15	23749.42
666.29	23370.25
666.44	23344.50
666.58	23346.84
666.72	23138.54
666.86	23384.29
667.00	23026.19
667.14	22785.12
667.28	23070.66
667.43	22759.37
667.57	23002.78
667.71	22824.90
667.85	22904.48
667.99	22579.15
668.13	23150.24
668.27	23037.89
668.41	22860.01
668.56	22960.66
668.70	22766.39
668.84	23304.71
668.98	22492.55
669.12	22916.19
669.26	22742.99
669.40	22581.49
669.54	22560.42
669.68	22604.89
669.82	22291.26
669.96	22214.02
670.10	22143.81
670.25	22630.64
670.39	22225.73
670.53	22338.07
670.67	22157.85
670.81	22221.05
670.95	22183.60
671.09	22188.28
671.23	22108.70
671.37	22078.27
671.51	21912.10
671.65	22099.34
671.79	21891.03
671.93	21919.12
672.07	21874.65
672.21	22059.55
672.35	21989.33
672.49	21720.17
672.63	21774.00
672.77	21502.50
672.91	21525.91
673.05	21561.02
673.19	21757.62
673.33	21671.02
673.47	21617.19
673.61	21610.17
673.75	21647.61
673.89	21418.24
674.03	21256.75
674.17	21666.34
674.31	21233.34
674.45	21120.99
674.59	20879.92
674.73	21329.30
674.87	21259.09
675.01	21104.61
675.15	20835.45
675.29	20718.42
675.43	20699.70
675.56	20835.45
675.70	20814.38
675.84	20917.37
675.98	20369.68
676.12	21191.21
676.26	20826.09
676.40	20650.55
676.54	20709.06
676.68	20610.76
676.82	19807.95
676.96	20168.40
677.10	20187.12
677.23	20053.71
677.37	20386.07
677.51	19999.88
677.65	20184.78
677.79	19761.14
677.93	20018.60
678.07	19723.69
678.21	19831.36
678.34	19674.54
678.48	19693.27
678.62	19667.52
678.76	19630.07
678.90	19386.66
679.04	19660.50
679.18	19396.02
679.31	19187.71
679.45	19110.47
679.59	18960.68
679.73	19082.39
679.87	18972.38
680.00	19138.56
680.14	18956.00
680.28	19035.58
680.42	18860.04
680.56	18925.57
680.70	18944.30
680.83	19337.51
680.97	18684.50
681.11	18506.62
681.25	18820.25
681.39	18281.92
681.52	18649.39
681.66	18731.31
681.80	18443.42
681.94	18628.32
682.07	18555.77
682.21	18263.20
682.35	17790.41
682.49	17900.42
682.62	17867.65
682.76	17851.27
682.90	17823.18
683.04	17972.97
683.17	17900.42
683.31	17699.13
683.45	17867.65
683.59	17788.07
683.72	17671.04
683.86	17888.71
684.00	17617.21
684.13	17701.47
684.27	17598.49
684.41	17413.59
684.55	17296.56
684.68	17151.45
684.82	17312.94
684.96	17275.49
685.09	16816.75
685.23	16842.50
685.37	16795.68
685.50	16978.25
685.64	16912.71
685.78	17334.01
685.91	17025.06
686.05	17025.06
686.19	16683.34
686.32	16662.27
686.46	16444.60
686.60	16379.07
686.73	16409.50
686.87	16409.50
687.01	16552.27
687.14	16320.56
687.28	15976.50
687.42	16397.79
687.55	15995.22
687.69	16360.34
687.82	15604.35
687.96	15960.11
688.10	15999.90
688.23	15978.84
688.37	15845.43
688.50	15950.75
688.64	15864.15
688.78	15770.53
688.91	15707.34
689.05	15470.94
689.18	15686.27
689.32	15342.21
689.46	15410.09
689.59	15169.01
689.73	15234.55
689.86	15021.56
690.00	15213.48
690.13	15382.00
690.27	15096.46
690.41	15475.62
690.54	14724.31
690.68	14824.95
690.81	15269.66
690.95	14745.38
691.08	14956.02
691.22	14745.38
691.35	14946.66
691.49	14918.57
691.62	14583.88
691.76	14581.54
691.89	14359.19
692.03	14391.95
692.16	14382.59
692.30	14253.86
692.43	14572.18
692.57	14520.68
692.70	14136.84
692.84	14118.11
692.97	13935.55
693.11	14162.58
693.24	14036.19
693.38	13987.04
693.51	14038.53
693.65	13696.82
693.78	13544.68
693.92	13811.50
694.05	13640.64
694.19	13544.68
694.32	13455.74
694.45	13441.70
694.59	13540.00
694.72	13275.52
694.86	13289.56
694.99	13151.47
695.13	13238.07
695.26	13179.56
695.39	13048.49
695.53	13062.53
695.66	13233.39
695.80	13130.41
695.93	12896.35
696.07	13160.83
696.20	13160.83
696.33	12985.29
696.47	13025.08
696.60	12564.00
696.73	12718.47
696.87	12727.83
697.00	12826.14
697.14	12397.82
697.27	12372.07
697.40	12248.02
697.54	12292.49
697.67	12182.49
697.80	12414.20
697.94	12084.19
698.07	12112.27
698.21	12175.47
698.34	12100.57
698.47	11777.58
698.61	12189.51
698.74	11941.41
698.87	11946.09
699.01	11894.60
699.14	11742.47
699.27	11632.46
699.40	11653.53
699.54	11585.65
699.67	11545.86
699.80	11571.61
699.94	11485.01
700.07	11501.39
700.20	11255.64
700.34	11435.86
700.47	11300.11
700.60	11180.74
700.73	11360.96
700.87	11180.74
701.00	11103.50
701.13	11164.36
701.26	11147.97
701.40	11236.91
701.53	10766.46
701.66	10977.11
701.79	10815.62
701.93	10775.83
702.06	10698.59
702.19	10562.84
702.32	10415.38
702.46	10558.16
702.59	10380.28
702.72	10555.82
702.85	10565.18
702.99	10593.26
703.12	10218.78
703.25	10246.87
703.38	10265.59
703.51	10291.34
703.65	10225.80
703.78	10083.03
703.91	10099.41
704.04	10197.71
704.17	10015.15
704.31	9893.44
704.44	9958.98
704.57	9856.00
704.70	9795.14
704.83	9570.45
704.96	9776.42
705.10	9626.62
705.23	9507.26
>>>>>End Processed Spectral Data<<<<<
