SpectraSuite Data File
++++++++++++++++++++++++++++++++++++
Date: Fri Oct 18 13:58:37 GMT-05:00 2013
User: bianchi
Dark Spectrum Present: No
Reference Spectrum Present: No
Number of Sampled Component Spectra: 1
Spectrometers: USB2+H05261
Integration Time (usec): 50000 (USB2+H05261)
Spectra Averaged: 1 (USB2+H05261)
Boxcar Smoothing: 0 (USB2+H05261)
Correct for Electrical Dark: No (USB2+H05261)
Strobe/Lamp Enabled: No (USB2+H05261)
Correct for Detector Non-linearity: No (USB2+H05261)
Correct for Stray Light: No (USB2+H05261)
Number of Pixels in Processed Spectrum: 2048
>>>>>Begin Processed Spectral Data<<<<<
365.73	37.45
365.92	37.45
366.12	37.45
366.32	0.00
366.52	0.00
366.72	0.00
366.91	0.00
367.11	0.00
367.31	0.00
367.51	0.00
367.70	0.00
367.90	0.00
368.10	0.00
368.30	0.00
368.49	0.00
368.69	0.00
368.89	0.00
369.09	0.00
369.28	0.00
369.48	0.00
369.68	0.00
369.87	0.00
370.07	0.00
370.27	0.00
370.47	0.00
370.66	135.75
370.86	175.54
371.06	126.39
371.25	182.56
371.45	74.90
371.65	81.92
371.84	117.03
372.04	117.03
372.24	173.20
372.44	212.99
372.63	187.24
372.83	222.35
373.03	222.35
373.22	238.73
373.42	205.97
373.62	250.44
373.81	229.37
374.01	224.69
374.21	161.50
374.40	184.90
374.60	285.55
374.79	290.23
374.99	229.37
375.19	184.90
375.38	255.12
375.58	252.78
375.78	297.25
375.97	248.10
376.17	308.95
376.37	269.16
376.56	215.33
376.76	187.24
376.95	297.25
377.15	334.70
377.35	264.48
377.54	217.67
377.74	266.82
377.93	227.03
378.13	285.55
378.33	339.38
378.52	304.27
378.72	313.63
378.91	299.59
379.11	264.48
379.31	285.55
379.50	255.12
379.70	313.63
379.89	369.80
380.09	301.93
380.28	266.82
380.48	301.93
380.68	304.27
380.87	248.10
381.07	262.14
381.26	404.91
381.46	278.52
381.65	365.12
381.85	353.42
382.04	358.10
382.24	334.70
382.43	346.40
382.63	292.57
382.83	367.46
383.02	330.02
383.22	421.30
383.41	353.42
383.61	337.04
383.80	411.93
384.00	407.25
384.19	355.76
384.39	292.57
384.58	341.72
384.78	355.76
384.97	308.95
385.17	393.21
385.36	386.19
385.56	433.00
385.75	379.17
385.95	425.98
386.14	461.09
386.34	358.10
386.53	407.25
386.72	369.80
386.92	470.45
387.11	409.59
387.31	386.19
387.50	362.78
387.70	393.21
387.89	423.64
388.09	390.87
388.28	388.53
388.48	449.38
388.67	461.09
388.86	421.30
389.06	447.04
389.25	514.92
389.45	528.96
389.64	458.74
389.84	454.06
390.03	543.00
390.22	416.62
390.42	505.56
390.61	484.49
390.81	461.09
391.00	531.30
391.19	416.62
391.39	533.64
391.58	543.00
391.78	533.64
391.97	601.52
392.16	461.09
392.36	514.92
392.55	550.03
392.75	554.71
392.94	557.05
393.13	613.22
393.33	589.82
393.52	519.60
393.71	641.31
393.91	573.43
394.10	512.58
394.29	554.71
394.49	552.37
394.68	606.20
394.88	615.56
395.07	671.73
395.26	617.90
395.46	629.60
395.65	667.05
395.84	671.73
396.04	683.44
396.23	617.90
396.42	655.35
396.62	653.01
396.81	718.54
397.00	617.90
397.19	681.10
397.39	725.57
397.58	657.69
397.77	697.48
397.97	730.25
398.16	610.88
398.35	720.88
398.55	763.01
398.74	734.93
398.93	718.54
399.12	732.59
399.32	688.12
399.51	758.33
399.70	636.63
399.90	713.86
400.09	809.83
400.28	681.10
400.47	812.17
400.67	800.46
400.86	805.14
401.05	695.14
401.24	781.74
401.44	807.48
401.63	807.48
401.82	870.68
402.01	856.64
402.21	798.12
402.40	781.74
402.59	889.40
402.78	901.11
402.97	814.51
403.17	954.94
403.36	870.68
403.55	854.30
403.74	795.78
403.93	889.40
404.13	966.64
404.32	1001.75
404.51	894.08
404.70	1008.77
404.89	809.83
405.09	1001.75
405.28	931.53
405.47	924.51
405.66	936.21
405.85	945.58
406.05	976.00
406.24	973.66
406.43	971.32
406.62	1020.47
406.81	1123.46
407.00	966.64
407.20	983.02
407.39	854.30
407.58	1004.09
407.77	1111.75
407.96	1078.99
408.15	1034.52
408.34	997.07
408.54	1086.01
408.73	1100.05
408.92	1088.35
409.11	1102.39
409.30	1104.73
409.49	1282.61
409.68	1137.50
409.87	1064.94
410.07	1146.86
410.26	1198.35
410.45	1273.25
410.64	1144.52
410.83	1254.53
411.02	1170.27
411.21	1165.59
411.40	1308.36
411.59	1270.91
411.78	1217.08
411.98	1348.15
412.17	1317.72
412.36	1294.32
412.55	1301.34
412.74	1320.06
412.93	1282.61
413.12	1387.94
413.31	1451.13
413.50	1296.66
413.69	1394.96
413.88	1359.85
414.07	1303.68
414.26	1495.60
414.45	1458.15
414.64	1404.32
414.83	1521.35
415.02	1481.56
415.22	1453.47
415.41	1504.96
415.60	1537.73
415.79	1645.40
415.98	1556.46
416.17	1572.84
416.36	1614.97
416.55	1633.69
416.74	1675.82
416.93	1659.44
417.12	1603.27
417.31	1624.33
417.50	1753.06
417.69	1673.48
417.88	1816.26
418.07	1661.78
418.26	1797.53
418.45	1734.34
418.64	1825.62
418.83	1760.08
419.02	1743.70
419.21	1764.76
419.39	1928.60
419.58	1844.34
419.77	1774.13
419.96	1827.96
420.15	1870.09
420.34	1834.98
420.53	1846.68
420.72	1973.07
420.91	1839.66
421.10	1898.17
421.29	1991.80
421.48	1975.41
421.67	1954.35
421.86	2005.84
422.05	2019.88
422.24	1930.94
422.43	2017.54
422.61	1935.62
422.80	1912.22
422.99	1977.75
423.18	2087.76
423.37	2054.99
423.56	1977.75
423.75	1973.07
423.94	2132.23
424.13	1837.32
424.32	1806.89
424.50	2019.88
424.69	1977.75
424.88	2054.99
425.07	2040.95
425.26	2050.31
425.45	2062.01
425.64	2122.87
425.83	2024.56
426.01	2026.90
426.20	2024.56
426.39	2139.25
426.58	2024.56
426.77	2099.46
426.96	2087.76
427.15	2026.90
427.33	2150.95
427.52	2008.18
427.71	2122.87
427.90	2258.62
428.09	2162.66
428.28	2146.27
428.46	2134.57
428.65	2218.83
428.84	2286.70
429.03	2218.83
429.22	2155.63
429.40	2134.57
429.59	2338.20
429.78	2134.57
429.97	2165.00
430.16	2235.21
430.34	2249.25
430.53	2305.43
430.72	2368.62
430.91	2317.13
431.10	2270.32
431.28	2326.49
431.47	2420.11
431.66	2363.94
431.85	2361.60
432.03	2326.49
432.22	2480.97
432.41	2466.92
432.60	2462.24
432.79	2314.79
432.97	2403.73
433.16	2459.90
433.35	2429.48
433.54	2499.69
433.72	2520.76
433.91	2562.89
434.10	2565.23
434.28	2640.12
434.47	2471.61
434.66	2429.48
434.85	2628.42
435.03	2619.06
435.22	2600.34
435.41	2614.38
435.59	2670.55
435.78	2736.09
435.97	2619.06
436.16	2562.89
436.34	2764.17
436.53	2686.94
436.72	2829.71
436.90	2672.89
437.09	2693.96
437.28	2740.77
437.46	2743.11
437.65	2794.60
437.84	2843.75
438.02	2801.62
438.21	2892.90
438.40	2792.26
438.58	2876.52
438.77	2761.83
438.96	2899.92
439.14	2796.94
439.33	3028.65
439.52	2897.58
439.70	2958.44
439.89	3028.65
440.08	2977.16
440.26	3124.62
440.45	2939.71
440.63	3110.57
440.82	3218.24
441.01	3054.40
441.19	3119.93
441.38	3169.09
441.57	3246.32
441.75	3145.68
441.94	3323.56
442.12	3337.60
442.31	3253.34
442.50	3293.13
442.68	3325.90
442.87	3323.56
443.05	3377.39
443.24	3400.80
443.43	3302.50
443.61	3365.69
443.80	3480.38
443.98	3368.03
444.17	3351.65
444.35	3407.82
444.54	3445.27
444.73	3449.95
444.91	3480.38
445.10	3379.73
445.28	3555.27
445.47	3393.78
445.65	3438.25
445.84	3529.53
446.02	3576.34
446.21	3365.69
446.39	3379.73
446.58	3543.57
446.77	3534.21
446.95	3440.59
447.14	3501.44
447.32	3585.70
447.51	3581.02
447.69	3550.59
447.88	3559.95
448.06	3625.49
448.25	3482.72
448.43	3468.67
448.62	3564.64
448.80	3536.55
448.99	3501.44
449.17	3606.77
449.36	3597.40
449.54	3693.37
449.73	3634.85
449.91	3688.68
450.10	3606.77
450.28	3681.66
450.46	3651.24
450.65	3660.60
450.83	3763.58
451.02	3751.88
451.20	3688.68
451.39	3667.62
451.57	3742.52
451.76	3838.48
451.94	3801.03
452.13	3826.78
452.31	3794.01
452.49	3728.47
452.68	3899.33
452.86	3885.29
453.05	3887.63
453.23	4009.34
453.42	4011.68
453.60	3857.20
453.78	3840.82
453.97	3861.88
454.15	3885.29
454.34	3880.61
454.52	3990.61
454.70	3981.25
454.89	3948.48
455.07	4028.06
455.26	4035.08
455.44	4002.32
455.62	4018.70
455.81	4021.04
455.99	4166.15
456.17	4119.34
456.36	4138.07
456.54	4191.90
456.73	4189.56
456.91	4353.40
457.09	4322.97
457.28	4320.63
457.46	4271.48
457.64	4414.25
457.83	4351.06
458.01	4451.70
458.19	4341.69
458.38	4348.72
458.56	4564.04
458.74	4430.63
458.93	4477.44
459.11	4496.17
459.29	4362.76
459.48	4603.83
459.66	4475.10
459.84	4643.62
460.03	4784.06
460.21	4561.70
460.39	4617.88
460.57	4559.36
460.76	4533.62
460.94	4676.39
461.12	4585.11
461.31	4779.37
461.49	4582.77
461.67	4552.34
461.85	4545.32
462.04	4617.88
462.22	4856.61
462.40	4610.86
462.59	4924.49
462.77	4772.35
462.95	4798.10
463.13	4784.06
463.32	4971.30
463.50	4915.12
463.68	4823.84
463.86	4793.42
464.05	4791.08
464.23	4826.18
464.41	4954.91
464.59	4777.03
464.78	5078.96
464.96	4877.68
465.14	4933.85
465.32	4952.57
465.50	4840.23
465.69	4975.98
465.87	4983.00
466.05	4915.12
466.23	4924.49
466.41	5109.39
466.60	5170.24
466.78	5055.56
466.96	4952.57
467.14	4990.02
467.32	5067.26
467.51	5205.35
467.69	5076.62
467.87	5015.77
468.05	5123.43
468.23	5121.09
468.41	5116.41
468.60	5093.01
468.78	5188.97
468.96	5041.51
469.14	5235.78
469.32	5355.15
469.50	5158.54
469.69	5331.74
469.87	5413.66
470.05	5416.00
470.23	5336.42
470.41	5305.99
470.59	5401.96
470.77	5385.57
470.95	5460.47
471.14	5490.90
471.32	5308.34
471.50	5523.66
471.68	5556.43
471.86	5654.73
472.04	5671.12
472.22	5788.14
472.40	5710.91
472.58	5853.68
472.77	5640.69
472.95	5867.72
473.13	5841.98
473.31	5612.60
473.49	5764.74
473.67	5776.44
473.85	5872.40
474.03	6099.44
474.21	6132.20
474.39	6033.90
474.57	6036.24
474.75	5991.77
474.93	6228.17
475.12	6012.84
475.30	6209.44
475.48	6155.61
475.66	6314.77
475.84	6171.99
476.02	6253.91
476.20	6232.85
476.38	6469.24
476.56	6434.13
476.74	6574.56
476.92	6537.12
477.10	6450.52
477.28	6537.12
477.46	6527.75
477.64	6827.34
477.82	6689.25
478.00	7000.54
478.18	6834.36
478.36	6951.39
478.54	6949.05
478.72	7082.46
478.90	7190.13
479.08	7112.89
479.26	7344.60
479.44	7255.66
479.62	7503.76
479.80	7372.69
479.98	7456.95
480.16	7634.83
480.34	7478.01
480.52	7742.49
480.70	7644.19
480.88	7480.35
481.06	7676.96
481.24	7698.02
481.41	7873.56
481.59	7908.67
481.77	8058.46
481.95	8131.02
482.13	8102.93
482.31	8051.44
482.49	8147.40
482.67	8294.86
482.85	8379.12
483.03	8538.27
483.21	8601.47
483.39	8730.20
483.57	8606.15
483.74	8479.76
483.92	8592.11
484.10	8769.99
484.28	8713.81
484.46	9067.24
484.64	9130.43
484.82	9137.45
485.00	9074.26
485.18	9212.35
485.35	9174.90
485.53	9378.53
485.71	9514.28
485.89	9453.42
486.07	9451.08
486.25	9596.20
486.43	9692.16
486.61	9673.43
486.78	9949.62
486.96	9982.38
487.14	10026.86
487.32	9966.00
487.50	10104.09
487.68	10176.65
487.85	10406.02
488.03	10438.79
488.21	10597.95
488.39	10427.09
488.57	10658.80
488.75	10644.76
488.92	10949.03
489.10	10967.75
489.28	10993.50
489.46	10939.66
489.64	11199.46
489.81	11276.70
489.99	11005.20
490.17	11290.74
490.35	11372.66
490.53	11466.28
490.70	11482.67
490.88	11527.14
491.06	11789.28
491.24	11749.49
491.41	11864.18
491.59	11896.94
491.77	12114.61
491.95	12112.27
492.13	12252.70
492.30	12297.17
492.48	12250.36
492.66	12336.96
492.84	12418.88
493.01	12814.43
493.19	12657.62
493.37	12816.77
493.54	12931.46
493.72	12760.60
493.90	12762.94
494.08	12830.82
494.25	13167.85
494.43	13090.62
494.61	13048.49
494.79	13376.16
494.96	13319.99
495.14	13596.17
495.32	13621.92
495.49	13668.73
495.67	13640.64
495.85	13727.24
496.02	14090.02
496.20	13874.70
496.38	13862.99
496.55	13947.25
496.73	14277.27
496.91	14286.63
497.09	14059.60
497.26	14478.55
497.44	14157.90
497.62	14345.14
497.79	14436.42
497.97	14633.03
498.14	15007.52
498.32	14607.28
498.50	14878.79
498.67	14651.75
498.85	14970.07
499.03	14970.07
499.20	15293.06
499.38	15054.33
499.56	15040.28
499.73	15129.22
499.91	15480.30
500.08	15627.76
500.26	15084.75
500.44	15295.40
500.61	15613.71
500.79	15538.82
500.97	15232.21
501.14	15882.88
501.32	16070.12
501.49	15763.51
501.67	16009.26
501.84	16004.58
502.02	15789.25
502.20	16095.86
502.37	16226.93
502.55	16259.70
502.72	16215.23
502.90	15927.35
503.07	16098.20
503.25	16252.68
503.43	16395.45
503.60	16369.71
503.78	16486.73
503.95	16446.94
504.13	16760.58
504.30	16875.26
504.48	16690.36
504.65	17015.69
504.83	17224.00
505.01	16964.20
505.18	16931.44
505.36	17153.79
505.53	16800.37
505.71	17029.74
505.88	17003.99
506.06	17069.53
506.23	17441.67
506.41	17497.84
506.58	17614.87
506.76	17612.53
506.93	17331.67
507.11	17504.87
507.28	17678.07
507.46	17624.23
507.63	17869.99
507.81	17694.45
507.98	17715.51
508.16	17867.65
508.33	17741.26
508.50	18150.85
508.68	18174.26
508.85	18200.01
509.03	18174.26
509.20	17994.04
509.38	18544.06
509.55	18483.21
509.73	18412.99
509.90	18492.57
510.08	18649.39
510.25	18190.64
510.42	18647.05
510.60	18661.09
510.77	18665.77
510.95	18827.27
511.12	18614.28
511.30	18602.58
511.47	18743.01
511.64	19040.26
511.82	19293.04
511.99	18934.93
512.17	19206.44
512.34	19066.00
512.51	19281.33
512.69	19026.21
512.86	18965.36
513.04	19632.41
513.21	19679.22
513.38	19370.27
513.56	19662.84
513.73	19262.61
513.90	19777.53
514.08	19360.91
514.25	19700.29
514.43	19957.75
514.60	19913.28
514.77	19655.82
514.95	20077.12
515.12	19793.91
515.29	19950.73
515.47	19920.30
515.64	20240.95
515.81	20027.96
515.99	20084.14
516.16	20451.60
516.33	20194.14
516.51	20425.86
516.68	20217.55
516.85	20285.42
517.03	20379.04
517.20	19990.52
517.37	20692.68
517.54	20592.03
517.72	20603.74
517.89	20652.89
518.06	20561.61
518.24	20566.29
518.41	20856.51
518.58	20865.88
518.75	20664.59
518.93	21078.86
519.10	20961.84
519.27	20917.37
519.45	21345.69
519.62	21422.92
519.79	21163.12
519.96	21146.74
520.14	21156.10
520.31	21158.44
520.48	21364.41
520.65	21401.86
520.83	21603.14
521.00	21486.12
521.17	21589.10
521.34	21420.58
521.52	21792.73
521.69	21661.66
521.86	21656.98
522.03	21628.89
522.20	21645.27
522.38	22155.51
522.55	22031.46
522.72	22118.06
522.89	22195.30
523.07	22089.98
523.24	21788.05
523.41	22146.15
523.58	21886.35
523.75	21989.33
523.92	22499.57
524.10	22066.57
524.27	22382.54
524.44	22614.26
524.61	22595.53
524.78	22455.10
524.96	22895.12
525.13	22499.57
525.30	22752.35
525.47	22588.51
525.64	22403.61
525.81	22937.25
525.98	22897.46
526.16	22712.56
526.33	23101.09
526.50	22862.35
526.67	22995.76
526.84	22988.74
527.01	22752.35
527.18	22883.42
527.36	23180.67
527.53	23243.86
527.70	23601.96
527.87	22995.76
528.04	22993.42
528.21	23288.33
528.38	23405.36
528.55	23323.44
528.72	23248.54
528.89	23321.10
529.07	23281.31
529.24	23220.45
529.41	23616.01
529.58	23578.56
529.75	23297.69
529.92	23288.33
530.09	23449.83
530.26	23988.15
530.43	23903.89
530.60	23843.04
530.77	24081.77
530.94	24144.97
531.11	23730.69
531.28	23695.58
531.46	23906.23
531.63	24105.18
531.80	24140.29
531.97	24060.71
532.14	24400.08
532.31	24144.97
532.48	24081.77
532.65	24547.54
532.82	24114.54
532.99	24556.90
533.16	24474.98
533.33	24306.46
533.50	24826.06
533.67	24116.88
533.84	24238.59
534.01	24397.74
534.18	24027.94
534.35	24402.43
534.52	24671.59
534.69	24816.70
534.86	24730.10
535.03	24407.11
535.20	24699.67
535.37	25214.59
535.54	25245.02
535.71	24762.87
535.88	24849.47
536.05	24805.00
536.22	24797.98
536.38	25350.34
536.55	25050.75
536.72	25216.93
536.89	24727.76
537.06	25092.88
537.23	25062.46
537.40	25010.96
537.57	24802.66
537.74	25106.93
537.91	25340.98
538.08	25422.90
538.25	25394.81
538.42	25025.01
538.59	25539.93
538.75	25078.84
538.92	25862.92
539.09	25514.18
539.26	25738.87
539.43	25748.23
539.60	25663.97
539.77	25450.99
539.94	25734.19
540.11	25724.83
540.28	25706.10
540.44	25600.78
540.61	25500.14
540.78	25743.55
540.95	25839.51
541.12	25729.51
541.29	25671.00
541.46	26129.74
541.62	26153.15
541.79	25811.43
541.96	25607.80
542.13	25792.70
542.30	25963.56
542.47	25951.86
542.63	26452.73
542.80	26085.27
542.97	26274.85
543.14	26569.76
543.31	26532.31
543.48	26251.45
543.64	26639.98
543.81	26206.98
543.98	26899.78
544.15	26394.22
544.32	26876.37
544.48	27033.19
544.65	26698.49
544.82	26632.96
544.99	26398.90
545.16	26492.52
545.32	26932.54
545.49	26944.25
545.66	27145.53
545.83	26740.62
546.00	27236.81
546.16	26742.96
546.33	26778.07
546.50	26831.90
546.67	26822.54
546.83	26707.85
547.00	26824.88
547.17	26834.24
547.34	26679.77
547.50	27292.99
547.67	27440.44
547.84	26841.26
548.00	27316.39
548.17	27218.09
548.34	27405.33
548.51	27445.12
548.67	27250.86
548.84	27564.49
549.01	27538.74
549.18	27669.81
549.34	27000.42
549.51	27094.04
549.68	27138.51
549.84	27204.05
550.01	27157.24
550.18	27140.85
550.34	27873.44
550.51	27325.75
550.68	27756.41
550.84	27410.01
551.01	27702.58
551.18	27297.67
551.34	27391.29
551.51	27374.91
551.68	27440.44
551.84	27777.48
552.01	27962.38
552.18	27866.42
552.34	27711.94
552.51	28177.71
552.68	27384.27
552.84	27964.72
553.01	28198.77
553.18	27653.43
553.34	27857.06
553.51	28072.39
553.67	28393.04
553.84	28126.22
554.01	28437.51
554.17	28334.53
554.34	27948.34
554.51	27997.49
554.67	28067.70
554.84	27740.03
555.00	28304.10
555.17	28077.07
555.33	28652.84
555.50	28327.50
555.67	28051.32
555.83	28224.52
556.00	28407.08
556.16	28786.25
556.33	28259.63
556.50	28720.71
556.66	28580.28
556.83	28238.56
556.99	28765.18
557.16	28535.81
557.32	28371.97
557.49	28587.30
557.65	28297.08
557.82	28474.96
557.98	28278.35
558.15	28411.76
558.32	28570.92
558.48	28748.80
558.65	28531.13
558.81	28769.86
558.98	28790.93
559.14	28896.25
559.31	28645.82
559.47	28739.44
559.64	29032.00
559.80	28641.14
559.97	28643.48
560.13	28556.88
560.30	28828.38
560.46	28470.28
560.63	28727.74
560.79	28868.17
560.96	28896.25
561.12	28741.78
561.29	28823.70
561.45	28753.48
561.61	28692.63
561.78	29212.23
561.94	28898.59
562.11	29237.97
562.27	29233.29
562.44	28973.49
562.60	28755.82
562.77	29390.11
562.93	28964.13
563.10	29497.77
563.26	28896.25
563.42	29427.56
563.59	29254.36
563.75	29078.82
563.92	29268.40
564.08	29106.90
564.24	29130.31
564.41	29020.30
564.57	29233.29
564.74	29247.33
564.90	29289.46
565.07	29422.87
565.23	29090.52
565.39	29549.26
565.56	29324.57
565.72	29542.24
565.88	29149.03
566.05	29394.79
566.21	29509.47
566.38	29202.86
566.54	29448.62
566.70	29366.70
566.87	29273.08
567.03	29441.60
567.19	29675.65
567.36	29362.02
567.52	29434.58
567.68	29247.33
567.85	29132.65
568.01	29237.97
568.17	29364.36
568.34	29497.77
568.50	29497.77
568.66	29593.73
568.83	30148.44
568.99	29401.81
569.15	29376.06
569.32	29804.38
569.48	29317.55
569.64	29481.39
569.81	29392.45
569.97	29703.74
570.13	29734.17
570.30	29312.87
570.46	29717.78
570.62	29443.94
570.78	29582.03
570.95	29179.46
571.11	29474.37
571.27	29699.06
571.43	29703.74
571.60	29703.74
571.76	29322.23
571.92	29942.47
572.09	29790.34
572.25	29738.85
572.41	29862.90
572.57	29792.68
572.74	29785.66
572.90	29694.38
573.06	29476.71
573.22	29565.65
573.38	29841.83
573.55	29965.88
573.71	29586.71
573.87	30199.93
574.03	29603.10
574.20	29776.30
574.36	29607.78
574.52	29731.83
574.68	29851.19
574.84	29722.46
575.01	29727.14
575.17	29907.37
575.33	30094.61
575.49	29888.64
575.65	29778.64
575.82	30118.01
575.98	29605.44
576.14	29694.38
576.30	29743.53
576.46	29638.20
576.62	29624.16
576.79	30033.75
576.95	29755.23
577.11	29663.95
577.27	29982.26
577.43	29989.28
577.59	30197.59
577.75	29820.77
577.92	29898.00
578.08	29823.11
578.24	29546.92
578.40	29883.96
578.56	30141.42
578.72	30040.78
578.88	30066.52
579.04	29935.45
579.21	30239.72
579.37	29923.75
579.53	29963.54
579.69	29869.92
579.85	29673.31
580.01	29912.05
580.17	29771.61
580.33	29984.60
580.49	29797.36
580.65	29965.88
580.82	30293.55
580.98	29881.62
581.14	29797.36
581.30	30281.85
581.46	29567.99
581.62	30017.37
581.78	30017.37
581.94	29514.16
582.10	29659.27
582.26	29900.34
582.42	29858.21
582.58	30132.06
582.74	30251.42
582.90	30225.68
583.06	30286.53
583.22	29912.05
583.38	29909.71
583.54	30197.59
583.70	29394.79
583.86	29937.79
584.02	29951.84
584.18	30139.08
584.34	30405.90
584.50	30190.57
584.66	29809.06
584.82	30059.50
584.98	30253.76
585.14	30190.57
585.30	29888.64
585.46	29909.71
585.62	29780.98
585.78	30054.82
585.94	30164.82
586.10	29986.94
586.26	30085.25
586.42	30302.92
586.58	30185.89
586.74	29907.37
586.90	29795.02
587.06	29773.95
587.22	29961.20
587.38	29905.02
587.54	30408.24
587.70	30281.85
587.86	29984.60
588.02	30244.40
588.18	30331.00
588.34	29970.56
588.49	30532.29
588.65	30108.65
588.81	30064.18
588.97	30148.44
589.13	30394.20
589.29	30382.49
589.45	30092.27
589.61	30361.43
589.77	30572.08
589.93	30300.58
590.08	30984.01
590.24	30213.98
590.40	30590.80
590.56	30164.82
590.72	30494.84
590.88	30073.54
591.04	30291.21
591.20	30850.60
591.35	30438.67
591.51	30672.72
591.67	30485.48
591.83	30628.25
591.99	30684.42
592.15	30089.93
592.31	30403.56
592.46	30501.86
592.62	29834.81
592.78	30483.14
592.94	30307.60
593.10	30651.66
593.26	30508.88
593.41	30586.12
593.57	30471.43
593.73	30623.57
593.89	30604.84
594.05	30583.78
594.20	30216.32
594.36	30253.76
594.52	30450.37
594.68	30164.82
594.84	30216.32
594.99	30569.74
595.15	30426.96
595.31	30845.92
595.47	30600.16
595.62	30541.65
595.78	30478.46
595.94	30375.47
596.10	30391.86
596.25	30771.02
596.41	30328.66
596.57	30342.70
596.73	30286.53
596.88	30719.53
597.04	30616.55
597.20	30288.87
597.36	30525.27
597.51	30836.56
597.67	30532.29
597.83	30448.03
597.99	30508.88
598.14	30646.97
598.30	30246.74
598.46	30504.20
598.61	30572.08
598.77	30639.95
598.93	31049.55
599.09	30838.90
599.24	30705.49
599.40	30700.81
599.56	31068.27
599.71	30621.23
599.87	31061.25
600.03	30452.71
600.18	31079.97
600.34	30560.37
600.50	30504.20
600.65	30717.19
600.81	30792.09
600.97	30794.43
601.12	30672.72
601.28	30979.33
601.44	30581.44
601.59	30534.63
601.75	30623.57
601.91	30637.61
602.06	30649.32
602.22	30504.20
602.37	30747.62
602.53	30494.84
602.69	30944.22
602.84	30864.64
603.00	30494.84
603.16	30698.47
603.31	30794.43
603.47	30646.97
603.62	30483.14
603.78	30436.33
603.94	30574.42
604.09	30918.48
604.25	30377.81
604.40	30991.03
604.56	30675.06
604.71	31180.62
604.87	30742.94
605.03	30700.81
605.18	30904.43
605.34	30710.17
605.49	30476.12
605.65	31042.53
605.80	30520.59
605.96	30597.82
606.12	30597.82
606.27	30838.90
606.43	30232.70
606.58	30675.06
606.74	30859.96
606.89	30588.46
607.05	30998.06
607.20	30623.57
607.36	30689.10
607.51	30848.26
607.67	30588.46
607.82	30321.64
607.98	30433.99
608.13	30246.74
608.29	30513.56
608.44	30103.97
608.60	30412.92
608.75	30965.29
608.91	30719.53
609.06	30338.02
609.22	30621.23
609.37	30024.39
609.53	29886.30
609.68	30452.71
609.84	29968.22
609.99	30232.70
610.15	30340.36
610.30	30417.60
610.46	30157.80
610.61	30235.04
610.76	30422.28
610.92	30347.39
611.07	30169.51
611.23	30024.39
611.38	30305.26
611.54	30293.55
611.69	29930.77
611.84	30204.61
612.00	30349.73
612.15	30118.01
612.31	30525.27
612.46	30295.89
612.62	30120.35
612.77	29883.96
612.92	30499.52
613.08	30452.71
613.23	30263.13
613.39	30012.69
613.54	30277.17
613.69	30089.93
613.85	30071.20
614.00	29968.22
614.15	30176.53
614.31	30129.72
614.46	30134.40
614.62	30118.01
614.77	30235.04
614.92	30265.47
615.08	30050.14
615.23	30197.59
615.38	30242.06
615.54	29790.34
615.69	30047.80
615.84	29663.95
616.00	29963.54
616.15	29474.37
616.30	29921.41
616.46	30094.61
616.61	30136.74
616.76	29968.22
616.92	29589.05
617.07	29923.75
617.22	29853.53
617.37	29425.22
617.53	29778.64
617.68	29680.33
617.83	29432.24
617.99	29701.40
618.14	29802.04
618.29	29399.47
618.45	29537.56
618.60	29312.87
618.75	29612.46
618.90	29530.54
619.06	29633.52
619.21	29617.14
619.36	29717.78
619.51	29612.46
619.67	29518.84
619.82	29317.55
619.97	29560.97
620.12	29408.83
620.28	29338.62
620.43	29596.07
620.58	29633.52
620.73	29958.86
620.89	29317.55
621.04	29804.38
621.19	29706.08
621.34	29556.28
621.49	29570.33
621.65	29261.38
621.80	29312.87
621.95	29532.88
622.10	29364.36
622.25	29296.49
622.41	29282.44
622.56	29230.95
622.71	29362.02
622.86	28954.77
623.01	29507.13
623.16	29074.13
623.32	28968.81
623.47	29186.48
623.62	29151.37
623.77	28978.17
623.92	28924.34
624.07	28781.57
624.23	29228.61
624.38	29099.88
624.53	29184.14
624.68	29216.91
624.83	29132.65
624.98	28975.83
625.13	29188.82
625.29	28992.22
625.44	28863.49
625.59	28833.06
625.74	28589.64
625.89	28428.15
626.04	29020.30
626.19	28727.74
626.34	28748.80
626.49	28833.06
626.65	28666.88
626.80	28936.04
626.95	28882.21
627.10	28631.77
627.25	28826.04
627.40	28868.17
627.55	28294.74
627.70	28680.92
627.85	28116.86
628.00	28409.42
628.15	28400.06
628.30	28315.80
628.45	28657.52
628.60	28528.79
628.76	28826.04
628.91	28690.29
629.06	28643.48
629.21	28252.61
629.36	28615.39
629.51	28421.13
629.66	28088.77
629.81	28442.19
629.96	28154.30
630.11	28362.61
630.26	28093.45
630.41	28114.52
630.56	28236.22
630.71	28070.04
630.86	28238.56
631.01	28093.45
631.16	28521.77
631.31	28135.58
631.46	28041.96
631.61	28247.93
631.76	28287.71
631.91	28278.35
632.06	28053.66
632.21	28219.84
632.36	28095.79
632.51	27906.21
632.66	28100.47
632.81	27585.55
632.96	27791.52
633.10	27978.76
633.25	28301.76
633.40	28245.58
633.55	27772.80
633.70	27557.47
633.85	27667.47
634.00	27917.91
634.15	28009.19
634.30	27892.16
634.45	27742.37
634.60	27695.56
634.75	27920.25
634.90	27754.07
635.05	27646.41
635.19	28114.52
635.34	28030.26
635.49	27793.86
635.64	27812.59
635.79	28194.09
635.94	27618.32
636.09	27618.32
636.24	27772.80
636.39	27915.57
636.53	27819.61
636.68	27868.76
636.83	27730.67
636.98	27468.53
637.13	27758.75
637.28	27534.06
637.43	27915.57
637.57	27658.11
637.72	27730.67
637.87	27550.45
638.02	27260.22
638.17	27623.00
638.32	27241.50
638.46	27056.59
638.61	27253.20
638.76	27351.50
638.91	27129.15
639.06	27318.73
639.20	27325.75
639.35	27583.21
639.50	27470.87
639.65	27543.42
639.80	27180.64
639.94	27688.54
640.09	27400.65
640.24	27026.17
640.39	27248.52
640.54	26986.38
640.68	27147.87
640.83	27000.42
640.98	26789.77
641.13	27178.30
641.27	27065.96
641.42	27112.77
641.57	27037.87
641.72	27117.45
641.86	26775.73
642.01	26948.93
642.16	27005.10
642.31	27246.18
642.45	27091.70
642.60	26778.07
642.75	26644.66
642.90	26984.04
643.04	26815.52
643.19	26630.62
643.34	27072.98
643.48	26661.04
643.63	26764.03
643.78	26895.10
643.93	26897.44
644.07	26792.11
644.22	26579.12
644.37	26773.39
644.51	27108.08
644.66	26895.10
644.81	26471.46
644.95	26511.25
645.10	26396.56
645.25	26618.91
645.39	26661.04
645.54	26864.67
645.69	26331.03
645.83	26518.27
645.98	26211.66
646.13	26689.13
646.27	26316.98
646.42	26848.29
646.57	26672.74
646.71	26340.39
646.86	26749.98
647.00	26527.63
647.15	26375.50
647.30	26368.48
647.44	26115.70
647.59	26522.95
647.74	26075.91
647.88	26235.06
648.03	26469.12
648.17	26562.74
648.32	26639.98
648.47	26389.54
648.61	26366.13
648.76	26504.23
648.90	26459.76
649.05	26412.95
649.20	26387.20
649.34	25663.97
649.49	25930.80
649.63	26052.50
649.78	25837.17
649.92	26141.44
650.07	26639.98
650.21	25891.01
650.36	26038.46
650.51	26143.78
650.65	26153.15
650.80	26242.09
650.94	25865.26
651.09	25860.58
651.23	25790.36
651.38	25776.32
651.52	25806.75
651.67	25853.56
651.81	25607.80
651.96	25771.64
652.10	26033.78
652.25	25837.17
652.39	25795.04
652.54	26003.35
652.68	26125.06
652.83	26036.12
652.97	25898.03
653.12	25652.27
653.26	25668.66
653.41	25841.85
653.55	25453.33
653.70	25593.76
653.84	25411.20
653.99	25556.31
654.13	25394.81
654.27	25788.02
654.42	25483.75
654.56	25692.06
654.71	25638.23
654.85	25816.11
655.00	25390.13
655.14	25785.68
655.29	25745.89
655.43	25502.48
655.57	25673.34
655.72	25495.46
655.86	25448.64
656.01	25500.14
656.15	25359.70
656.30	25504.82
656.44	25289.49
656.58	25556.31
656.73	25158.42
656.87	25188.85
657.01	25350.34
657.16	25497.80
657.30	25738.87
657.45	25240.34
657.59	25563.33
657.73	25301.19
657.88	25137.35
658.02	25034.37
658.16	25102.25
658.31	24994.58
658.45	24870.53
658.60	24861.17
658.74	24709.04
658.88	25163.10
659.03	24952.45
659.17	25109.27
659.31	25287.15
659.46	25036.71
659.60	25142.03
659.74	25153.74
659.89	24805.00
660.03	24896.28
660.17	24453.92
660.32	24552.22
660.46	24692.65
660.60	24491.37
660.74	24746.48
660.89	24816.70
661.03	24554.56
661.17	24582.65
661.32	24575.62
661.46	24720.74
661.60	24313.48
661.74	24659.88
661.89	24812.02
662.03	24702.01
662.17	24339.23
662.31	24482.00
662.46	24521.79
662.60	24175.39
662.74	24250.29
662.88	24376.68
663.03	24140.29
663.17	24226.89
663.31	23386.63
663.45	23894.53
663.60	24135.60
663.74	23826.65
663.88	24367.32
664.02	23779.84
664.17	24006.87
664.31	24049.00
664.45	23798.57
664.59	23857.08
664.73	23716.65
664.88	23887.51
665.02	23480.25
665.16	23330.46
665.30	23779.84
665.44	23459.19
665.59	23349.18
665.73	23339.82
665.87	23496.64
666.01	23726.01
666.15	23854.74
666.29	23466.21
666.44	23690.90
666.58	23058.96
666.72	23297.69
666.86	23590.26
667.00	23314.08
667.14	23573.88
667.28	23192.37
667.43	23297.69
667.57	23426.42
667.71	23335.14
667.85	22930.23
667.99	23021.51
668.13	22775.75
668.27	22824.90
668.41	23131.51
668.56	22848.31
668.70	23016.83
668.84	22712.56
668.98	23021.51
669.12	22852.99
669.26	22944.27
669.40	23101.09
669.54	22778.09
669.68	22899.80
669.82	22497.23
669.96	22377.86
670.10	22593.19
670.25	22312.33
670.39	22181.26
670.53	22508.93
670.67	22499.57
670.81	22590.85
670.95	22558.08
671.09	22525.32
671.23	22167.21
671.37	22452.76
671.51	22164.87
671.65	22281.90
671.79	22115.72
671.93	22218.71
672.07	22106.36
672.21	21998.70
672.35	21530.59
672.49	21764.64
672.63	21947.20
672.77	21923.80
672.91	21680.38
673.05	22017.42
673.19	21788.05
673.33	21661.66
673.47	21804.43
673.61	21640.59
673.75	21848.90
673.89	21394.84
674.03	21802.09
674.17	21383.13
674.31	21263.77
674.45	21408.88
674.59	21135.04
674.73	21404.20
674.87	21249.72
675.01	21083.55
675.15	20980.56
675.29	21301.22
675.43	20840.13
675.56	21151.42
675.70	20931.41
675.84	20910.35
675.98	20620.12
676.12	21032.05
676.26	20940.77
676.40	21104.61
676.54	20795.66
676.68	20760.55
676.82	20397.77
676.96	20549.90
677.10	20547.56
677.23	20456.28
677.37	20191.80
677.51	20191.80
677.65	20016.26
677.79	20049.03
677.93	20159.03
678.07	19995.20
678.21	19903.92
678.34	19772.85
678.48	19721.35
678.62	19894.55
678.76	20004.56
678.90	19510.71
679.04	19555.18
679.18	19737.74
679.31	19290.70
679.45	19356.23
679.59	19166.65
679.73	19370.27
679.87	19101.11
680.00	19220.48
680.14	18979.40
680.28	19105.79
680.42	19325.80
680.56	19503.68
680.70	19192.39
680.83	19073.03
680.97	18960.68
681.11	18862.38
681.25	18712.58
681.39	18843.65
681.52	18764.07
681.66	18558.11
681.80	18452.78
681.94	18403.63
682.07	18321.71
682.21	18422.36
682.35	18031.49
682.49	18342.78
682.62	17975.31
682.76	17951.91
682.90	18010.42
683.04	17980.00
683.17	18272.56
683.31	18017.44
683.45	17776.37
683.59	18148.51
683.72	17413.59
683.86	17884.03
684.00	18106.38
684.13	17795.09
684.27	17635.94
684.41	17434.65
684.55	17348.05
684.68	17179.53
684.82	17397.20
684.96	17254.43
685.09	17116.34
685.23	17427.63
685.37	17153.79
685.50	17399.54
685.64	17039.10
685.78	17090.59
685.91	16950.16
686.05	17268.47
686.19	16996.97
686.32	16786.32
686.46	16636.53
686.60	16470.35
686.73	16594.40
686.87	16372.05
687.01	16430.56
687.14	16465.67
687.28	16198.85
687.42	16432.90
687.55	15971.82
687.69	16294.81
687.82	16407.16
687.96	16011.60
688.10	16278.43
688.23	15903.94
688.37	15836.06
688.50	15564.56
688.64	15922.66
688.78	15688.61
688.91	15541.16
689.05	15791.59
689.18	15524.77
689.32	15428.81
689.46	15386.68
689.59	15609.03
689.73	15552.86
689.86	15250.93
690.00	15459.24
690.13	15321.15
690.27	15314.13
690.41	15522.43
690.54	15300.08
690.68	15173.69
690.81	15229.87
690.95	15314.13
691.08	15283.70
691.22	15152.63
691.35	14799.21
691.49	14642.39
691.62	14862.40
691.76	14630.69
691.89	14644.73
692.03	14738.35
692.16	14427.06
692.30	14377.91
692.43	14246.84
692.57	14464.51
692.70	14373.23
692.84	14169.60
692.97	14104.07
693.11	14120.45
693.24	14174.28
693.38	14106.41
693.51	14260.88
693.65	13923.85
693.78	13996.40
693.92	14068.96
694.05	13909.80
694.19	13640.64
694.32	13626.60
694.45	13710.86
694.59	13628.94
694.72	13493.19
694.86	13284.88
694.99	13422.97
695.13	13174.88
695.26	13329.35
695.39	13282.54
695.53	13263.82
695.66	13270.84
695.80	13298.92
695.93	13291.90
696.07	13280.20
696.20	13064.87
696.33	12842.52
696.47	13102.32
696.60	12744.22
696.73	12751.24
696.87	12587.40
697.00	12620.17
697.14	12468.03
697.27	12561.66
697.40	12264.41
697.54	12390.80
697.67	12306.54
697.80	12531.23
697.94	12208.23
698.07	12044.40
698.21	11915.67
698.34	12233.98
698.47	12042.06
698.61	12255.04
698.74	12308.88
698.87	12018.65
699.01	12205.89
699.14	11866.52
699.27	11786.94
699.40	11955.46
699.54	11726.08
699.67	11667.57
699.80	11555.22
699.94	11543.52
700.07	11461.60
700.20	11389.05
700.34	11335.21
700.47	11180.74
700.60	11672.25
700.73	11239.25
700.87	11171.38
701.00	11417.13
701.13	11358.62
701.26	11304.79
701.40	11201.80
701.53	11126.91
701.66	11157.33
701.79	11157.33
701.93	10813.28
702.06	10862.43
702.19	10518.37
702.32	10651.78
702.46	10628.37
702.59	10583.90
702.72	10366.23
702.85	10410.70
702.99	10611.99
703.12	10452.83
703.25	10457.51
703.38	10434.11
703.51	10319.42
703.65	10078.35
703.78	10368.57
703.91	10373.25
704.04	10197.71
704.17	10207.08
704.31	10005.79
704.44	10169.63
704.57	10068.98
704.70	9956.64
704.83	9741.31
704.96	9643.01
705.10	9827.91
705.23	9657.05
>>>>>End Processed Spectral Data<<<<<
