SpectraSuite Data File
++++++++++++++++++++++++++++++++++++
Date: Fri Oct 18 13:58:23 GMT-05:00 2013
User: bianchi
Dark Spectrum Present: No
Reference Spectrum Present: No
Number of Sampled Component Spectra: 1
Spectrometers: USB2+H05261
Integration Time (usec): 50000 (USB2+H05261)
Spectra Averaged: 1 (USB2+H05261)
Boxcar Smoothing: 0 (USB2+H05261)
Correct for Electrical Dark: No (USB2+H05261)
Strobe/Lamp Enabled: No (USB2+H05261)
Correct for Detector Non-linearity: No (USB2+H05261)
Correct for Stray Light: No (USB2+H05261)
Number of Pixels in Processed Spectrum: 2048
>>>>>Begin Processed Spectral Data<<<<<
365.73	0.00
365.92	0.00
366.12	0.00
366.32	0.00
366.52	0.00
366.72	0.00
366.91	0.00
367.11	0.00
367.31	0.00
367.51	0.00
367.70	0.00
367.90	0.00
368.10	0.00
368.30	0.00
368.49	0.00
368.69	0.00
368.89	0.00
369.09	0.00
369.28	0.00
369.48	0.00
369.68	0.00
369.87	0.00
370.07	0.00
370.27	0.00
370.47	0.00
370.66	95.96
370.86	105.32
371.06	142.77
371.25	203.63
371.45	114.69
371.65	168.52
371.84	124.05
372.04	119.37
372.24	154.48
372.44	128.73
372.63	166.18
372.83	152.13
373.03	236.39
373.22	142.77
373.42	215.33
373.62	159.16
373.81	189.58
374.01	107.66
374.21	257.46
374.40	161.50
374.60	173.20
374.79	205.97
374.99	264.48
375.19	217.67
375.38	224.69
375.58	276.18
375.78	236.39
375.97	266.82
376.17	243.42
376.37	241.08
376.56	292.57
376.76	276.18
376.95	283.20
377.15	344.06
377.35	315.97
377.54	276.18
377.74	290.23
377.93	262.14
378.13	285.55
378.33	306.61
378.52	180.22
378.72	299.59
378.91	271.50
379.11	337.04
379.31	269.16
379.50	355.76
379.70	304.27
379.89	280.86
380.09	280.86
380.28	318.31
380.48	297.25
380.68	255.12
380.87	238.73
381.07	294.91
381.26	315.97
381.46	358.10
381.65	266.82
381.85	320.65
382.04	290.23
382.24	294.91
382.43	367.46
382.63	269.16
382.83	400.23
383.02	358.10
383.22	369.80
383.41	280.86
383.61	346.40
383.80	407.25
384.00	252.78
384.19	351.08
384.39	418.96
384.58	372.15
384.78	351.08
384.97	421.30
385.17	374.49
385.36	358.10
385.56	388.53
385.75	444.70
385.95	308.95
386.14	447.04
386.34	381.51
386.53	409.59
386.72	402.57
386.92	477.47
387.11	416.62
387.31	388.53
387.50	379.17
387.70	369.80
387.89	344.06
388.09	456.40
388.28	374.49
388.48	433.00
388.67	397.89
388.86	416.62
389.06	479.81
389.25	437.68
389.45	479.81
389.64	475.13
389.84	482.15
390.03	486.83
390.22	428.32
390.42	475.13
390.61	454.06
390.81	461.09
391.00	430.66
391.19	458.74
391.39	550.03
391.58	538.32
391.78	552.37
391.97	540.66
392.16	470.45
392.36	479.81
392.55	608.54
392.75	498.53
392.94	550.03
393.13	578.11
393.33	550.03
393.52	514.92
393.71	641.31
393.91	540.66
394.10	566.41
394.29	634.29
394.49	587.47
394.68	552.37
394.88	582.79
395.07	648.33
395.26	547.69
395.46	578.11
395.65	653.01
395.84	561.73
396.04	613.22
396.23	622.58
396.42	636.63
396.62	755.99
396.81	669.39
397.00	648.33
397.19	660.03
397.39	662.37
397.58	695.14
397.77	711.52
397.97	702.16
398.16	723.23
398.35	741.95
398.55	589.82
398.74	706.84
398.93	711.52
399.12	615.56
399.32	720.88
399.51	739.61
399.70	718.54
399.90	737.27
400.09	777.06
400.28	767.70
400.47	746.63
400.67	744.29
400.86	800.46
401.05	814.51
401.24	828.55
401.44	840.25
401.63	826.21
401.82	772.38
402.01	767.70
402.21	814.51
402.40	795.78
402.59	861.32
402.78	887.06
402.97	973.66
403.17	851.96
403.36	830.89
403.55	823.87
403.74	791.10
403.93	891.74
404.13	882.38
404.32	992.39
404.51	936.21
404.70	931.53
404.89	1041.54
405.09	983.02
405.28	891.74
405.47	1032.18
405.66	997.07
405.85	964.30
406.05	866.00
406.24	1008.77
406.43	915.15
406.62	1025.15
406.81	1043.88
407.00	1078.99
407.20	1039.20
407.39	1025.15
407.58	1022.81
407.77	1104.73
407.96	1123.46
408.15	936.21
408.34	1050.90
408.54	1144.52
408.73	1118.78
408.92	1219.42
409.11	1151.54
409.30	1107.07
409.49	1078.99
409.68	1095.37
409.87	1144.52
410.07	1191.33
410.26	1181.97
410.45	1167.93
410.64	1193.67
410.83	1139.84
411.02	1174.95
411.21	1111.75
411.40	1128.14
411.59	1198.35
411.78	1224.10
411.98	1256.87
412.17	1245.16
412.36	1252.19
412.55	1280.27
412.74	1364.53
412.93	1362.19
413.12	1268.57
413.31	1425.39
413.50	1322.40
413.69	1387.94
413.88	1390.28
414.07	1425.39
414.26	1397.30
414.45	1476.88
414.64	1444.11
414.83	1481.56
415.02	1521.35
415.22	1605.61
415.41	1603.27
415.60	1523.69
415.79	1565.82
415.98	1593.90
416.17	1675.82
416.36	1582.20
416.55	1584.54
416.74	1671.14
416.93	1561.14
417.12	1671.14
417.31	1823.28
417.50	1664.12
417.69	1629.01
417.88	1666.46
418.07	1748.38
418.26	1666.46
418.45	1769.44
418.64	1842.00
418.83	1799.87
419.02	1778.81
419.21	1860.73
419.39	1825.62
419.58	1832.64
419.77	1809.23
419.96	1760.08
420.15	1940.30
420.34	1760.08
420.53	1842.00
420.72	1872.43
420.91	1921.58
421.10	1959.03
421.29	2015.20
421.48	1832.64
421.67	1830.30
421.86	1912.22
422.05	1865.41
422.24	1888.81
422.43	1853.70
422.61	2005.84
422.80	2001.16
422.99	2066.69
423.18	1961.37
423.37	2148.61
423.56	1914.56
423.75	2057.33
423.94	1996.48
424.13	1851.36
424.32	1916.90
424.50	2111.16
424.69	2099.46
424.88	2087.76
425.07	2094.78
425.26	1998.82
425.45	1998.82
425.64	2036.27
425.83	1961.37
426.01	2008.18
426.20	2129.89
426.39	2118.18
426.58	2029.24
426.77	2094.78
426.96	2139.25
427.15	2033.93
427.33	2099.46
427.52	2062.01
427.71	2186.06
427.90	2167.34
428.09	2228.19
428.28	2246.91
428.46	2342.88
428.65	2188.40
428.84	2122.87
429.03	2134.57
429.22	2183.72
429.40	2239.89
429.59	2183.72
429.78	2160.31
429.97	2115.84
430.16	2253.94
430.34	2300.75
430.53	2298.41
430.72	2310.11
430.91	2279.68
431.10	2284.36
431.28	2373.30
431.47	2368.62
431.66	2399.05
431.85	2480.97
432.03	2413.09
432.22	2448.20
432.41	2347.56
432.60	2523.10
432.79	2473.95
432.97	2490.33
433.16	2485.65
433.35	2478.63
433.54	2478.63
433.72	2401.39
433.91	2480.97
434.10	2548.84
434.28	2476.29
434.47	2499.69
434.66	2539.48
434.85	2588.63
435.03	2649.49
435.22	2572.25
435.41	2698.64
435.59	2745.45
435.78	2574.59
435.97	2700.98
436.16	2764.17
436.34	2647.15
436.53	2637.78
436.72	2792.26
436.90	2626.08
437.09	2726.72
437.28	2668.21
437.46	2705.66
437.65	2820.35
437.84	2761.83
438.02	2740.77
438.21	2738.43
438.40	2825.03
438.58	2743.11
438.77	2787.58
438.96	2988.86
439.14	2988.86
439.33	2953.76
439.52	2988.86
439.70	2956.10
439.89	3056.74
440.08	2944.39
440.26	3023.97
440.45	3061.42
440.63	3169.09
440.82	3185.47
441.01	3080.14
441.19	3117.59
441.38	3148.02
441.57	3148.02
441.75	3225.26
441.94	3190.15
442.12	3208.87
442.31	3468.67
442.50	3302.50
442.68	3342.28
442.87	3426.54
443.05	3267.39
443.24	3433.57
443.43	3169.09
443.61	3393.78
443.80	3562.30
443.98	3302.50
444.17	3157.38
444.35	3459.31
444.54	3478.04
444.73	3541.23
444.91	3461.65
445.10	3234.62
445.28	3337.60
445.47	3396.12
445.65	3405.48
445.84	3548.25
446.02	3456.97
446.21	3454.63
446.39	3417.18
446.58	3548.25
446.77	3471.01
446.95	3431.23
447.14	3473.36
447.32	3475.70
447.51	3433.57
447.69	3503.78
447.88	3609.11
448.06	3414.84
448.25	3515.48
448.43	3403.14
448.62	3609.11
448.80	3513.14
448.99	3524.85
449.17	3538.89
449.36	3651.24
449.54	3585.70
449.73	3623.15
449.91	3779.97
450.10	3775.28
450.28	3784.65
450.46	3702.73
450.65	3822.09
450.83	3707.41
451.02	3810.39
451.20	3812.73
451.39	3833.80
451.57	3763.58
451.76	3733.15
451.94	3784.65
452.13	3801.03
452.31	3852.52
452.49	3782.31
452.68	3822.09
452.86	3808.05
453.05	3976.57
453.23	3922.74
453.42	3911.04
453.60	3960.19
453.78	3941.46
453.97	3988.27
454.15	3871.25
454.34	3847.84
454.52	3969.55
454.70	3840.82
454.89	4009.34
455.07	4042.11
455.26	4037.42
455.44	4081.89
455.62	4184.88
455.81	4023.38
455.99	4145.09
456.17	4072.53
456.36	4095.94
456.54	4269.14
456.73	4166.15
456.91	4285.52
457.09	4360.42
457.28	4273.82
457.46	4163.81
457.64	4344.03
457.83	4266.80
458.01	4332.33
458.19	4285.52
458.38	4346.37
458.56	4407.23
458.74	4374.46
458.93	4421.27
459.11	4587.45
459.29	4454.04
459.48	4510.21
459.66	4486.81
459.84	4510.21
460.03	4542.98
460.21	4498.51
460.39	4547.66
460.57	4624.90
460.76	4671.71
460.94	4704.48
461.12	4718.52
461.31	4681.07
461.49	4500.85
461.67	4447.02
461.85	4667.03
462.04	4727.88
462.22	4842.57
462.40	4791.08
462.59	4641.28
462.77	4652.98
462.95	4678.73
463.13	4746.61
463.32	4800.44
463.50	4732.56
463.68	4779.37
463.86	4734.90
464.05	4739.58
464.23	4973.64
464.41	4856.61
464.59	4746.61
464.78	5011.09
464.96	4828.53
465.14	4753.63
465.32	5083.64
465.50	5055.56
465.69	4980.66
465.87	4945.55
466.05	5048.54
466.23	4898.74
466.41	5043.85
466.60	5139.82
466.78	5060.24
466.96	5102.37
467.14	4858.95
467.32	5057.90
467.51	5247.48
467.69	5111.73
467.87	5233.44
468.05	5128.11
468.23	5282.59
468.41	5121.09
468.60	5181.95
468.78	5163.22
468.96	5170.24
469.14	5245.14
469.32	5476.85
469.50	5193.65
469.69	5383.23
469.87	5378.55
470.05	5479.19
470.23	5343.44
470.41	5406.64
470.59	5247.48
470.77	5352.81
470.95	5495.58
471.14	5474.51
471.32	5479.19
471.50	5675.80
471.68	5497.92
471.86	5600.90
472.04	5689.84
472.22	5731.97
472.40	5650.05
472.58	5570.48
472.77	5738.99
472.95	5825.59
473.13	5792.83
473.31	6038.58
473.49	5898.15
473.67	5853.68
473.85	5898.15
474.03	6155.61
474.21	6085.39
474.39	6228.17
474.57	6080.71
474.75	6057.31
474.93	6319.45
475.12	6139.23
475.30	6216.46
475.48	6033.90
475.66	6431.79
475.84	6211.78
476.02	6249.23
476.20	6296.04
476.38	6366.26
476.56	6628.40
476.74	6579.25
476.92	6572.22
477.10	6546.48
477.28	6766.49
477.46	6635.42
477.64	6764.15
477.82	6843.73
478.00	6932.67
478.18	6846.07
478.36	7056.72
478.54	6986.50
478.72	7084.80
478.90	7117.57
479.08	7126.93
479.26	7194.81
479.44	7258.00
479.62	7417.16
479.80	7424.18
479.98	7363.33
480.16	7386.73
480.34	7480.35
480.52	7609.08
480.70	7786.96
480.88	7503.76
481.06	7655.89
481.24	7639.51
481.41	7882.92
481.59	8018.68
481.77	7943.78
481.95	8070.17
482.13	8088.89
482.31	8140.38
482.49	8173.15
482.67	8446.99
482.85	8571.04
483.03	8463.38
483.21	8512.53
483.39	8547.64
483.57	8657.64
483.74	8844.88
483.92	8716.16
484.10	8641.26
484.28	8847.22
484.46	9224.05
484.64	9226.39
484.82	9142.13
485.00	9036.81
485.18	9202.99
485.35	9535.34
485.53	9467.47
485.71	9455.76
485.89	9472.15
486.07	9530.66
486.25	9495.55
486.43	9659.39
486.61	9877.06
486.78	9769.40
486.96	9872.38
487.14	10073.67
487.32	10113.45
487.50	10036.22
487.68	10251.55
487.85	10293.68
488.03	10534.75
488.21	10565.18
488.39	10724.33
488.57	10581.56
488.75	10778.17
488.92	10752.42
489.10	10949.03
489.28	10995.84
489.46	11164.36
489.64	10991.16
489.81	10904.56
489.99	11318.83
490.17	11304.79
490.35	11309.47
490.53	11538.84
490.70	11761.19
490.88	11669.91
491.06	11859.49
491.24	11578.63
491.41	11676.93
491.59	11995.25
491.77	12133.34
491.95	12177.81
492.13	12348.67
492.30	12226.96
492.48	12152.06
492.66	12451.65
492.84	12255.04
493.01	12524.21
493.19	12512.50
493.37	12734.85
493.54	12762.94
493.72	12697.41
493.90	12882.31
494.08	12748.90
494.25	13158.49
494.43	13062.53
494.61	13214.66
494.79	13209.98
494.96	13170.19
495.14	13348.08
495.32	13394.89
495.49	13600.85
495.67	13610.22
495.85	13790.44
496.02	13937.89
496.20	14033.85
496.38	14160.24
496.55	13961.30
496.73	14403.66
496.91	14047.90
497.09	14286.63
497.26	14490.26
497.44	14183.65
497.62	14413.02
497.79	14979.43
497.97	14260.88
498.14	14883.47
498.32	14841.34
498.50	14860.06
498.67	14888.15
498.85	14824.95
499.03	14759.42
499.20	14869.42
499.38	15077.73
499.56	15187.74
499.73	15098.80
499.91	15176.03
500.08	15407.75
500.26	15281.36
500.44	15360.94
500.61	15449.88
500.79	15538.82
500.97	15480.30
501.14	16002.24
501.32	15768.19
501.49	15873.51
501.67	16067.78
501.84	15791.59
502.02	15885.22
502.20	16084.16
502.37	16123.95
502.55	16114.59
502.72	16379.07
502.90	16222.25
503.07	16142.67
503.25	16161.40
503.43	16484.39
503.60	16535.88
503.78	16575.67
503.95	16535.88
504.13	16592.06
504.30	16762.92
504.48	16814.41
504.65	16659.93
504.83	16879.94
505.01	17179.53
505.18	17071.87
505.36	17319.96
505.53	16908.03
505.71	16769.94
505.88	17076.55
506.06	17046.12
506.23	17266.13
506.41	17310.60
506.58	17142.08
506.76	17385.50
506.93	17591.47
507.11	17406.56
507.28	17680.41
507.46	17593.81
507.63	17661.68
507.81	17834.88
507.98	17539.97
508.16	17982.34
508.33	17710.83
508.50	17696.79
508.68	18075.96
508.85	18333.42
509.03	18293.63
509.20	18286.61
509.38	18141.49
509.55	18396.61
509.73	18490.23
509.90	18443.42
510.08	18349.80
510.25	18188.30
510.42	18396.61
510.60	18279.58
510.77	18609.60
510.95	18782.80
511.12	18462.15
511.30	18663.43
511.47	19002.81
511.64	18892.80
511.82	18958.34
511.99	18906.85
512.17	19108.13
512.34	18682.16
512.51	19143.24
512.69	19370.27
512.86	19131.54
513.04	19435.81
513.21	19644.12
513.38	19290.70
513.56	19620.71
513.73	19396.02
513.90	19358.57
514.08	19470.92
514.25	19538.79
514.43	19770.51
514.60	19864.13
514.77	19913.28
514.95	19983.49
515.12	19826.68
515.29	19690.93
515.47	19831.36
515.64	20067.75
515.81	19995.20
515.99	20290.10
516.16	20528.84
516.33	20332.23
516.51	20613.10
516.68	20112.22
516.85	20250.32
517.03	20542.88
517.20	20238.61
517.37	20238.61
517.54	20580.33
517.72	20496.07
517.89	20460.96
518.06	20521.82
518.24	20577.99
518.41	20587.35
518.58	20528.84
518.75	20762.89
518.93	21081.21
519.10	20814.38
519.27	21181.85
519.45	20847.15
519.62	21397.18
519.79	20774.60
519.96	21298.88
520.14	21542.29
520.31	21095.25
520.48	21355.05
520.65	21495.48
520.83	21378.45
521.00	21387.82
521.17	21324.62
521.34	21568.04
521.52	21291.85
521.69	21371.43
521.86	21869.97
522.03	21832.52
522.20	21738.90
522.38	21872.31
522.55	21771.66
522.72	21766.98
522.89	21858.26
523.07	22087.64
523.24	21909.75
523.41	22071.25
523.58	21923.80
523.75	22150.83
523.92	22087.64
524.10	22293.60
524.27	22389.56
524.44	22487.87
524.61	22522.98
524.78	23026.19
524.96	22324.03
525.13	22499.57
525.30	22363.82
525.47	22981.72
525.64	22628.30
525.81	22710.22
525.98	22719.58
526.16	22794.48
526.33	22691.49
526.50	22766.39
526.67	22906.82
526.84	23030.87
527.01	22628.30
527.18	22717.24
527.36	22799.16
527.53	22960.66
527.70	23180.67
527.87	23555.15
528.04	23110.45
528.21	23241.52
528.38	22991.08
528.55	23405.36
528.72	23672.18
528.89	23566.85
529.07	23388.97
529.24	23285.99
529.41	23276.63
529.58	23328.12
529.75	23447.49
529.92	23747.08
530.09	23545.79
530.26	23892.19
530.43	23690.90
530.60	23616.01
530.77	23527.06
530.94	23896.87
531.11	23435.78
531.28	23843.04
531.46	23646.43
531.63	23758.78
531.80	23964.75
531.97	23885.17
532.14	24341.57
532.31	24119.22
532.48	24261.99
532.65	24460.94
532.82	23896.87
532.99	24030.28
533.16	24088.79
533.33	24439.87
533.50	24442.21
533.67	24542.86
533.84	24465.62
534.01	24259.65
534.18	24224.54
534.35	24505.41
534.52	24397.74
534.69	24500.73
534.86	24407.11
535.03	24592.01
535.20	24950.11
535.37	24458.60
535.54	24559.24
535.71	24730.10
535.88	24526.47
536.05	24781.59
536.22	24957.13
536.38	25116.29
536.55	24666.91
536.72	24964.15
536.89	25027.35
537.06	24931.39
537.23	25450.99
537.40	24849.47
537.57	24666.91
537.74	24877.55
537.91	25516.52
538.08	25085.86
538.25	25310.55
538.42	25415.88
538.59	25399.49
538.75	25149.06
538.92	25109.27
539.09	25308.21
539.26	25441.62
539.43	25167.78
539.60	25661.63
539.77	25294.17
539.94	25823.13
540.11	25116.29
540.28	25706.10
540.44	25710.78
540.61	25514.18
540.78	25099.90
540.95	25656.95
541.12	25556.31
541.29	25757.60
541.46	25699.08
541.62	25748.23
541.79	25645.25
541.96	25649.93
542.13	25366.73
542.30	25649.93
542.47	26085.27
542.63	26101.65
542.80	26291.24
542.97	26331.03
543.14	26342.73
543.31	26256.13
543.48	25977.61
543.64	26607.21
543.81	26218.68
543.98	26469.12
544.15	26698.49
544.32	26572.10
544.48	26883.39
544.65	26745.30
544.82	26665.72
544.99	26387.20
545.16	26614.23
545.32	26270.17
545.49	27019.14
545.66	26916.16
545.83	26539.33
546.00	26752.32
546.16	26654.02
546.33	26672.74
546.50	26551.04
546.67	26836.58
546.83	26434.01
547.00	26808.50
547.17	26773.39
547.34	26473.80
547.50	26796.79
547.67	27325.75
547.84	26895.10
548.00	27138.51
548.17	27667.47
548.34	27344.48
548.51	27402.99
548.67	27433.42
548.84	27028.51
549.01	27330.44
549.18	27400.65
549.34	27503.64
549.51	27358.52
549.68	27110.43
549.84	27417.04
550.01	27309.37
550.18	27147.87
550.34	27311.71
550.51	27835.99
550.68	27658.11
550.84	27047.23
551.01	27681.52
551.18	27388.95
551.34	27468.53
551.51	27613.64
551.68	27459.16
551.84	27999.83
552.01	27527.04
552.18	27545.76
552.34	27611.30
552.51	27751.73
552.68	27592.58
552.84	27421.72
553.01	27630.02
553.18	27487.25
553.34	27440.44
553.51	27969.40
553.67	28098.13
553.84	28091.11
554.01	28203.46
554.17	27875.78
554.34	28037.28
554.51	27988.13
554.67	28252.61
554.84	28058.34
555.00	27882.80
555.17	27615.98
555.33	28329.84
555.50	28196.43
555.67	27718.96
555.83	28114.52
556.00	28203.46
556.16	28538.15
556.33	28226.86
556.50	28290.06
556.66	28460.91
556.83	28301.76
556.99	28514.75
557.16	28479.64
557.32	28624.75
557.49	28687.95
557.65	28034.94
557.82	28175.37
557.98	28252.61
558.15	28290.06
558.32	28526.45
558.48	28514.75
558.65	28566.24
558.81	28893.91
558.98	28884.55
559.14	28533.47
559.31	28402.40
559.47	28404.74
559.64	28713.69
559.80	28549.85
559.97	28783.91
560.13	28875.19
560.30	28446.87
560.46	28549.85
560.63	28837.74
560.79	28554.54
560.96	28854.12
561.12	28568.58
561.29	28858.81
561.45	29355.00
561.61	28709.01
561.78	28636.45
561.94	28865.83
562.11	29067.11
562.27	29102.22
562.44	28739.44
562.60	28826.04
562.77	29186.48
562.93	28624.75
563.10	28886.89
563.26	28540.49
563.42	29055.41
563.59	29106.90
563.75	28952.43
563.92	28872.85
564.08	28854.12
564.24	29436.92
564.41	28952.43
564.57	28891.57
564.74	29153.71
564.90	28966.47
565.07	29008.60
565.23	29439.26
565.39	29343.30
565.56	29317.55
565.72	28996.90
565.88	29055.41
566.05	28945.41
566.21	29350.32
566.38	29158.39
566.54	29413.51
566.70	29560.97
566.87	29247.33
567.03	29502.45
567.19	29434.58
567.36	29701.40
567.52	29191.16
567.68	29404.15
567.85	29172.44
568.01	29347.98
568.17	29415.85
568.34	29619.48
568.50	29516.50
568.66	29263.72
568.83	29266.06
568.99	29483.73
569.15	29352.66
569.32	29088.18
569.48	29191.16
569.64	29795.02
569.81	29209.89
569.97	29268.40
570.13	29174.78
570.30	29483.73
570.46	29647.57
570.62	29715.44
570.78	29535.22
570.95	29322.23
571.11	29113.92
571.27	29034.35
571.43	29296.49
571.60	29631.18
571.76	29387.77
571.92	29434.58
572.09	29509.47
572.25	29951.84
572.41	29668.63
572.57	29596.07
572.74	29729.48
572.90	29326.91
573.06	29303.51
573.22	29642.88
573.38	29413.51
573.55	29633.52
573.71	30075.88
573.87	29837.15
574.03	29970.56
574.20	29773.95
574.36	29535.22
574.52	29670.97
574.68	29677.99
574.84	29816.08
575.01	29308.19
575.17	29596.07
575.33	29455.64
575.49	29631.18
575.65	30000.99
575.82	29876.94
575.98	29656.93
576.14	29523.52
576.30	29792.68
576.46	29551.60
576.62	29553.94
576.79	29692.04
576.95	29319.89
577.11	29612.46
577.27	29883.96
577.43	29893.32
577.59	29937.79
577.75	29968.22
577.92	29326.91
578.08	29769.27
578.24	29762.25
578.40	29579.69
578.56	29525.86
578.72	30118.01
578.88	30143.76
579.04	29804.38
579.21	29951.84
579.37	29977.58
579.53	30071.20
579.69	29521.18
579.85	29589.05
580.01	30012.69
580.17	29687.36
580.33	30040.78
580.49	29619.48
580.65	29930.77
580.82	29923.75
580.98	30101.63
581.14	30038.44
581.30	29991.62
581.46	29558.63
581.62	29958.86
581.78	29511.81
581.94	30024.39
582.10	29465.00
582.26	29841.83
582.42	29933.11
582.58	30059.50
582.74	30050.14
582.90	30022.05
583.06	29944.81
583.22	29785.66
583.38	29577.35
583.54	29900.34
583.70	29736.51
583.86	29865.24
584.02	29640.54
584.18	30134.40
584.34	29926.09
584.50	29898.00
584.66	29731.83
584.82	29865.24
584.98	30022.05
585.14	29764.59
585.30	29797.36
585.46	29577.35
585.62	29628.84
585.78	30139.08
585.94	29666.29
586.10	29837.15
586.26	30066.52
586.42	30057.16
586.58	30000.99
586.74	29961.20
586.90	29647.57
587.06	29921.41
587.22	29930.77
587.38	29860.55
587.54	30281.85
587.70	30216.32
587.86	30223.34
588.02	30267.81
588.18	30181.21
588.34	30029.07
588.49	30153.12
588.65	29752.89
588.81	30216.32
588.97	29881.62
589.13	30005.67
589.29	30012.69
589.45	30459.73
589.61	30143.76
589.77	30258.45
589.93	30118.01
590.08	30581.44
590.24	30501.86
590.40	30602.50
590.56	30258.45
590.72	29703.74
590.88	30237.38
591.04	30221.00
591.20	30403.56
591.35	30342.70
591.51	30319.30
591.67	30213.98
591.83	30293.55
591.99	30146.10
592.15	30099.29
592.31	30396.54
592.46	30099.29
592.62	30129.72
592.78	30405.90
592.94	30258.45
593.10	30047.80
593.26	30209.29
593.41	30471.43
593.57	30300.58
593.73	30164.82
593.89	30415.26
594.05	30398.88
594.20	30092.27
594.36	30436.33
594.52	30052.48
594.68	30438.67
594.84	30204.61
594.99	30471.43
595.15	30635.27
595.31	30450.37
595.47	30419.94
595.62	30607.19
595.78	30572.08
595.94	30534.63
596.10	30389.52
596.25	30352.07
596.41	30190.57
596.57	29928.43
596.73	30539.31
596.88	30323.98
597.04	30506.54
597.20	30579.10
597.36	30436.33
597.51	30618.89
597.67	30529.95
597.83	29986.94
597.99	30450.37
598.14	30635.27
598.30	30529.95
598.46	30625.91
598.61	30120.35
598.77	30256.11
598.93	30698.47
599.09	30419.94
599.24	31124.44
599.40	30934.86
599.56	30749.96
599.71	30551.01
599.87	30661.02
600.03	30164.82
600.18	30597.82
600.34	30237.38
600.50	30511.22
600.65	30326.32
600.81	30728.89
600.97	30998.06
601.12	30686.76
601.28	30705.49
601.44	30129.72
601.59	30242.06
601.75	30644.63
601.91	30639.95
602.06	30326.32
602.22	30562.72
602.37	30572.08
602.53	30532.29
602.69	30712.51
602.84	30424.62
603.00	30693.79
603.16	30766.34
603.31	30572.08
603.47	30583.78
603.62	30305.26
603.78	30632.93
603.94	30345.05
604.09	30548.67
604.25	30567.40
604.40	30319.30
604.56	30394.20
604.71	30747.62
604.87	30565.06
605.03	30490.16
605.18	30464.41
605.34	30513.56
605.49	30087.59
605.65	30225.68
605.80	30202.27
605.96	30483.14
606.12	30686.76
606.27	30429.30
606.43	30366.11
606.58	30452.71
606.74	30469.09
606.89	30754.64
607.05	30813.15
607.20	30354.41
607.36	30476.12
607.51	30492.50
607.67	29984.60
607.82	30106.31
607.98	30148.44
608.13	30274.83
608.29	30092.27
608.44	30913.80
608.60	30352.07
608.75	30452.71
608.91	30347.39
609.06	30370.79
609.22	30485.48
609.37	30171.85
609.53	30403.56
609.68	29869.92
609.84	30040.78
609.99	30209.29
610.15	30122.69
610.30	30415.26
610.46	30000.99
610.61	30345.05
610.76	30206.95
610.92	30005.67
611.07	30246.74
611.23	30169.51
611.38	30169.51
611.54	29848.85
611.69	30190.57
611.84	29888.64
612.00	30000.99
612.15	29954.18
612.31	30466.75
612.46	29928.43
612.62	30232.70
612.77	29933.11
612.92	30057.16
613.08	29453.30
613.23	30141.42
613.39	29975.24
613.54	29516.50
613.69	30029.07
613.85	29701.40
614.00	29776.30
614.15	29921.41
614.31	29989.28
614.46	29827.79
614.62	30043.12
614.77	29848.85
614.92	30005.67
615.08	29846.51
615.23	30071.20
615.38	29731.83
615.54	29652.25
615.69	29472.03
615.84	29788.00
616.00	29804.38
616.15	30057.16
616.30	29771.61
616.46	29780.98
616.61	29930.77
616.76	29720.12
616.92	29518.84
617.07	29762.25
617.22	29776.30
617.37	29535.22
617.53	29759.91
617.68	29809.06
617.83	29715.44
617.99	29280.10
618.14	29479.05
618.29	29586.71
618.45	29425.22
618.60	29619.48
618.75	29551.60
618.90	29898.00
619.06	29174.78
619.21	29624.16
619.36	30071.20
619.51	29207.55
619.67	29371.38
619.82	29069.45
619.97	29343.30
620.12	29619.48
620.28	29441.60
620.43	29628.84
620.58	29876.94
620.73	29294.14
620.89	29537.56
621.04	29816.08
621.19	29457.98
621.34	29387.77
621.49	29301.17
621.65	29387.77
621.80	29291.80
621.95	29172.44
622.10	29057.75
622.25	29097.54
622.41	28790.93
622.56	29284.78
622.71	28856.46
622.86	29294.14
623.01	29062.43
623.16	29163.08
623.32	29134.99
623.47	28617.73
623.62	29078.82
623.77	29039.03
623.92	28987.53
624.07	28945.41
624.23	29146.69
624.38	29212.23
624.53	28954.77
624.68	29127.97
624.83	29053.07
624.98	28950.09
625.13	29158.39
625.29	28968.81
625.44	29153.71
625.59	28437.51
625.74	28582.62
625.89	28364.95
626.04	28512.41
626.19	28650.50
626.34	28561.56
626.49	28938.38
626.65	29034.35
626.80	28744.12
626.95	29027.32
627.10	28662.20
627.25	28481.98
627.40	28409.42
627.55	28540.49
627.70	28582.62
627.85	28402.40
628.00	28318.14
628.15	28496.02
628.30	28606.03
628.45	28596.67
628.60	28430.49
628.76	28657.52
628.91	28142.60
629.06	28095.79
629.21	28786.25
629.36	28395.38
629.51	27981.10
629.66	28278.35
629.81	27875.78
629.96	27840.67
630.11	28067.70
630.26	28421.13
630.41	28187.07
630.56	28161.33
630.71	28304.10
630.86	28030.26
631.01	28158.99
631.16	28353.25
631.31	28095.79
631.46	28088.77
631.61	28278.35
631.76	28245.58
631.91	27662.79
632.06	28116.86
632.21	28107.49
632.36	27697.90
632.51	27601.94
632.66	27857.06
632.81	27985.79
632.96	27442.78
633.10	27915.57
633.25	28009.19
633.40	28002.17
633.55	28116.86
633.70	27669.81
633.85	27873.44
634.00	27527.04
634.15	27604.28
634.30	27337.46
634.45	27494.27
634.60	27470.87
634.75	27831.31
634.90	27594.92
635.05	27831.31
635.19	27936.63
635.34	27971.74
635.49	27789.18
635.64	27838.33
635.79	27819.61
635.94	27618.32
636.09	27428.74
636.24	27505.98
636.39	27534.06
636.53	27225.11
636.68	27721.30
636.83	27658.11
636.98	27260.22
637.13	27438.10
637.28	27618.32
637.43	27697.90
637.57	27520.02
637.72	27520.02
637.87	27133.83
638.02	27538.74
638.17	27047.23
638.32	26904.46
638.46	27316.39
638.61	27035.53
638.76	27035.53
638.91	27028.51
639.06	27213.41
639.20	27424.06
639.35	27618.32
639.50	26993.40
639.65	27566.83
639.80	27440.44
639.94	27035.53
640.09	27028.51
640.24	27267.24
640.39	27091.70
640.54	26918.50
640.68	26965.31
640.83	26808.50
640.98	26850.63
641.13	27002.76
641.27	27112.77
641.42	27091.70
641.57	26867.01
641.72	26911.48
641.86	26478.48
642.01	26850.63
642.16	26883.39
642.31	26726.58
642.45	26937.23
642.60	26522.95
642.75	26408.26
642.90	26691.47
643.04	26764.03
643.19	26951.27
643.34	26134.42
643.48	26654.02
643.63	26852.97
643.78	26843.60
643.93	26792.11
644.07	26771.05
644.22	26700.83
644.37	26464.44
644.51	26429.33
644.66	26448.05
644.81	26506.57
644.95	26555.72
645.10	26246.77
645.25	26515.93
645.39	26153.15
645.54	26263.15
645.69	26256.13
645.83	26267.83
645.98	26532.31
646.13	26513.59
646.27	26637.64
646.42	26572.10
646.57	26036.12
646.71	26422.31
646.86	26314.64
647.00	26415.29
647.15	26581.46
647.30	26279.54
647.44	25907.39
647.59	25898.03
647.74	25867.60
647.88	26265.49
648.03	26038.46
648.17	26022.08
648.32	26256.13
648.47	26085.27
648.61	26356.77
648.76	26251.45
648.90	26017.40
649.05	26349.75
649.20	26314.64
649.34	26026.76
649.49	26127.40
649.63	25869.94
649.78	25750.57
649.92	25898.03
650.07	26078.25
650.21	25893.35
650.36	26064.21
650.51	25853.56
650.65	26279.54
650.80	26019.74
650.94	25963.56
651.09	25680.36
651.23	25624.18
651.38	25668.66
651.52	25891.01
651.67	26047.82
651.81	25635.89
651.96	25685.04
652.10	25678.02
652.25	25989.31
652.39	25827.81
652.54	25788.02
652.68	25734.19
652.83	25692.06
652.97	25818.45
653.12	25509.50
653.26	25586.74
653.41	25436.94
653.55	25502.48
653.70	25317.57
653.84	25373.75
653.99	25462.69
654.13	25827.81
654.27	25724.83
654.42	25596.10
654.56	25647.59
654.71	25795.04
654.85	25596.10
655.00	25654.61
655.14	25406.52
655.29	25401.83
655.43	25553.97
655.57	25518.86
655.72	25118.63
655.86	25453.33
656.01	25230.98
656.15	25090.54
656.30	25242.68
656.44	25324.60
656.58	25233.32
656.73	25118.63
656.87	25043.73
657.01	25268.42
657.16	25135.01
657.30	25441.62
657.45	25266.08
657.59	25371.41
657.73	24898.62
657.88	25137.35
658.02	25027.35
658.16	24737.12
658.31	25057.78
658.45	24994.58
658.60	24739.46
658.74	24966.49
658.88	24451.58
659.03	24746.48
659.17	24837.76
659.31	24851.81
659.46	24751.17
659.60	24999.26
659.74	24772.23
659.89	24584.99
660.03	24690.31
660.17	24648.18
660.32	24336.89
660.46	24821.38
660.60	24327.53
660.74	24657.54
660.89	24503.07
661.03	24329.87
661.17	24496.05
661.32	24503.07
661.46	24472.64
661.60	24388.38
661.74	24547.54
661.89	24589.67
662.03	24390.72
662.17	24130.92
662.31	23927.30
662.46	24037.30
662.60	24107.52
662.74	24006.87
662.88	24077.09
663.03	23857.08
663.17	23655.79
663.31	23892.19
663.45	23775.16
663.60	23693.24
663.74	24212.84
663.88	24119.22
664.02	23828.99
664.17	23669.84
664.31	23576.22
664.45	23524.72
664.59	23517.70
664.73	23836.02
664.88	23784.52
665.02	23566.85
665.16	23246.20
665.30	23274.29
665.44	23522.38
665.59	23510.68
665.73	23424.08
665.87	23178.33
666.01	23403.02
666.15	23143.22
666.29	23056.62
666.44	23569.19
666.58	23405.36
666.72	23349.18
666.86	23363.23
667.00	23606.64
667.14	23012.15
667.28	22995.76
667.43	23178.33
667.57	23047.26
667.71	22902.14
667.85	23302.37
667.99	23007.47
668.13	23101.09
668.27	22864.69
668.41	23232.16
668.56	23206.41
668.70	22923.21
668.84	22876.40
668.98	22661.07
669.12	22705.54
669.26	22761.71
669.40	22810.86
669.54	22693.83
669.68	22415.31
669.82	22291.26
669.96	22450.42
670.10	22225.73
670.25	22796.82
670.39	22431.69
670.53	22207.00
670.67	22272.54
670.81	22562.76
670.95	22246.79
671.09	22223.39
671.23	22207.00
671.37	22122.74
671.51	22326.37
671.65	22167.21
671.79	21862.94
671.93	22270.20
672.07	22162.53
672.21	21956.57
672.35	21570.38
672.49	21708.47
672.63	21579.74
672.77	21804.43
672.91	21736.56
673.05	21479.10
673.19	21919.12
673.33	21673.36
673.47	21593.78
673.61	21493.14
673.75	21490.80
673.89	21184.19
674.03	21678.04
674.17	21305.90
674.31	21245.04
674.45	21193.55
674.59	21170.15
674.73	21453.35
674.87	21235.68
675.01	21041.42
675.15	20940.77
675.29	21104.61
675.43	21099.93
675.56	20966.52
675.70	21151.42
675.84	20716.08
675.98	20582.67
676.12	20645.87
676.26	21029.71
676.40	20952.48
676.54	20985.24
676.68	20493.73
676.82	20189.46
676.96	20152.01
677.10	20180.10
677.23	20226.91
677.37	20009.24
677.51	20318.19
677.65	20208.19
677.79	19800.93
677.93	19878.17
678.07	19833.70
678.21	19796.25
678.34	19751.78
678.48	19878.17
678.62	19866.47
678.76	19714.33
678.90	19637.09
679.04	19697.95
679.18	19414.74
679.31	19276.65
679.45	19014.51
679.59	19580.92
679.73	19122.18
679.87	19180.69
680.00	19246.23
680.14	18808.54
680.28	18691.52
680.42	19091.75
680.56	18911.53
680.70	18902.17
680.83	19063.66
680.97	18785.14
681.11	18768.76
681.25	18663.43
681.39	18848.33
681.52	18623.64
681.66	18412.99
681.80	18256.18
681.94	18448.10
682.07	18235.11
682.21	18389.59
682.35	17996.38
682.49	17912.12
682.62	17963.61
682.76	18050.21
682.90	18108.72
683.04	17872.33
683.17	17914.46
683.31	18141.49
683.45	18141.49
683.59	17701.47
683.72	18071.28
683.86	17549.34
684.00	17682.75
684.13	17706.15
684.27	17233.36
684.41	17247.41
684.55	17130.38
684.68	17476.78
684.82	17317.62
684.96	17067.19
685.09	17212.30
685.23	17177.19
685.37	17151.45
685.50	17177.19
685.64	17121.02
685.78	16959.52
685.91	17172.51
686.05	16830.79
686.19	16940.80
686.32	17221.66
686.46	16620.14
686.60	16570.99
686.73	16793.34
686.87	16334.60
687.01	16236.30
687.14	16517.16
687.28	16086.50
687.42	16184.80
687.55	15957.77
687.69	16180.12
687.82	16411.84
687.96	16166.08
688.10	16037.35
688.23	15777.55
688.37	16205.87
688.50	15908.62
688.64	15763.51
688.78	15742.44
688.91	16086.50
689.05	15815.00
689.18	15768.19
689.32	15054.33
689.46	15555.20
689.59	15543.50
689.73	15253.27
689.86	15307.10
690.00	15049.64
690.13	15433.49
690.27	15297.74
690.41	15445.20
690.54	14822.61
690.68	15164.33
690.81	15171.35
690.95	15356.25
691.08	15190.08
691.22	14937.30
691.35	14836.66
691.49	14986.45
691.62	14532.39
691.76	14789.85
691.89	14223.44
692.03	14417.70
692.16	14637.71
692.30	14373.23
692.43	14396.64
692.57	14384.93
692.70	14078.32
692.84	14185.99
692.97	14050.24
693.11	14005.77
693.24	14054.92
693.38	13935.55
693.51	14066.62
693.65	14047.90
693.78	14122.79
693.92	13874.70
694.05	13603.19
694.19	13743.63
694.32	13362.12
694.45	13518.93
694.59	13254.45
694.72	13287.22
694.86	13027.42
694.99	13298.92
695.13	13188.92
695.26	13078.91
695.39	13184.24
695.53	13104.66
695.66	13137.43
695.80	12996.99
695.93	12994.65
696.07	13062.53
696.20	13179.56
696.33	13046.15
696.47	12826.14
696.60	12683.36
696.73	12908.05
696.87	12725.49
697.00	12489.10
697.14	12606.13
697.27	12470.37
697.40	12554.63
697.54	12224.62
697.67	12510.16
697.80	12121.63
697.94	11918.01
698.07	11941.41
698.21	12081.85
698.34	12156.74
698.47	11983.54
698.61	12252.70
698.74	11971.84
698.87	11934.39
699.01	11620.76
699.14	11747.15
699.27	11709.70
699.40	11648.85
699.54	11517.78
699.67	11796.30
699.80	11634.80
699.94	11625.44
700.07	11452.24
700.20	11297.77
700.34	11213.51
700.47	11185.42
700.60	11257.98
700.73	11307.13
700.87	11323.51
701.00	11150.31
701.13	11171.38
701.26	11173.72
701.40	10998.18
701.53	10937.32
701.66	11033.29
701.79	11126.91
701.93	10984.13
702.06	10925.62
702.19	10698.59
702.32	10862.43
702.46	10532.41
702.59	10541.77
702.72	10438.79
702.85	10352.19
702.99	10448.15
703.12	10270.27
703.25	10015.15
703.38	10406.02
703.51	10497.30
703.65	10544.11
703.78	10237.50
703.91	10251.55
704.04	10340.49
704.17	10260.91
704.31	10129.84
704.44	10010.47
704.57	9900.47
704.70	9774.08
704.83	9703.86
704.96	9575.13
705.10	9596.20
705.23	9647.69
>>>>>End Processed Spectral Data<<<<<
