SpectraSuite Data File
++++++++++++++++++++++++++++++++++++
Date: Fri Oct 18 13:58:41 GMT-05:00 2013
User: bianchi
Dark Spectrum Present: No
Reference Spectrum Present: No
Number of Sampled Component Spectra: 1
Spectrometers: USB2+H05261
Integration Time (usec): 50000 (USB2+H05261)
Spectra Averaged: 1 (USB2+H05261)
Boxcar Smoothing: 0 (USB2+H05261)
Correct for Electrical Dark: No (USB2+H05261)
Strobe/Lamp Enabled: No (USB2+H05261)
Correct for Detector Non-linearity: No (USB2+H05261)
Correct for Stray Light: No (USB2+H05261)
Number of Pixels in Processed Spectrum: 2048
>>>>>Begin Processed Spectral Data<<<<<
365.73	0.00
365.92	0.00
366.12	0.00
366.32	0.00
366.52	0.00
366.72	0.00
366.91	0.00
367.11	0.00
367.31	0.00
367.51	0.00
367.70	0.00
367.90	0.00
368.10	0.00
368.30	0.00
368.49	0.00
368.69	0.00
368.89	0.00
369.09	0.00
369.28	0.00
369.48	0.00
369.68	0.00
369.87	0.00
370.07	0.00
370.27	0.00
370.47	0.00
370.66	140.43
370.86	161.50
371.06	159.16
371.25	93.62
371.45	152.13
371.65	208.31
371.84	203.63
372.04	170.86
372.24	208.31
372.44	166.18
372.63	203.63
372.83	205.97
373.03	163.84
373.22	229.37
373.42	138.09
373.62	201.29
373.81	245.76
374.01	241.08
374.21	201.29
374.40	224.69
374.60	325.33
374.79	189.58
374.99	276.18
375.19	287.89
375.38	250.44
375.58	278.52
375.78	290.23
375.97	264.48
376.17	217.67
376.37	227.03
376.56	313.63
376.76	273.84
376.95	299.59
377.15	278.52
377.35	311.29
377.54	212.99
377.74	234.05
377.93	276.18
378.13	365.12
378.33	322.99
378.52	222.35
378.72	285.55
378.91	318.31
379.11	297.25
379.31	255.12
379.50	236.39
379.70	339.38
379.89	311.29
380.09	297.25
380.28	252.78
380.48	294.91
380.68	290.23
380.87	351.08
381.07	318.31
381.26	283.20
381.46	250.44
381.65	311.29
381.85	334.70
382.04	276.18
382.24	334.70
382.43	358.10
382.63	297.25
382.83	365.12
383.02	313.63
383.22	414.27
383.41	306.61
383.61	393.21
383.80	486.83
384.00	332.36
384.19	360.44
384.39	346.40
384.58	404.91
384.78	407.25
384.97	414.27
385.17	334.70
385.36	374.49
385.56	397.89
385.75	367.46
385.95	430.66
386.14	393.21
386.34	400.23
386.53	477.47
386.72	505.56
386.92	461.09
387.11	346.40
387.31	397.89
387.50	456.40
387.70	421.30
387.89	430.66
388.09	503.22
388.28	449.38
388.48	425.98
388.67	461.09
388.86	362.78
389.06	390.87
389.25	505.56
389.45	524.28
389.64	498.53
389.84	482.15
390.03	526.62
390.22	521.94
390.42	433.00
390.61	533.64
390.81	517.26
391.00	482.15
391.19	465.77
391.39	503.22
391.58	531.30
391.78	559.39
391.97	521.94
392.16	531.30
392.36	517.26
392.55	547.69
392.75	573.43
392.94	486.83
393.13	580.45
393.33	517.26
393.52	552.37
393.71	568.75
393.91	594.50
394.10	528.96
394.29	552.37
394.49	580.45
394.68	580.45
394.88	554.71
395.07	540.66
395.26	631.94
395.46	617.90
395.65	620.24
395.84	671.73
396.04	664.71
396.23	603.86
396.42	601.52
396.62	674.07
396.81	645.99
397.00	603.86
397.19	624.92
397.39	676.41
397.58	699.82
397.77	678.76
397.97	732.59
398.16	720.88
398.35	671.73
398.55	657.69
398.74	748.97
398.93	793.44
399.12	767.70
399.32	751.31
399.51	711.52
399.70	755.99
399.90	730.25
400.09	720.88
400.28	821.53
400.47	800.46
400.67	880.04
400.86	821.53
401.05	706.84
401.24	844.93
401.44	837.91
401.63	819.19
401.82	781.74
402.01	840.25
402.21	931.53
402.40	873.02
402.59	755.99
402.78	842.59
402.97	816.85
403.17	910.47
403.36	807.48
403.55	861.32
403.74	851.96
403.93	931.53
404.13	919.83
404.32	917.49
404.51	856.64
404.70	903.45
404.89	903.45
405.09	997.07
405.28	868.34
405.47	943.24
405.66	938.55
405.85	943.24
406.05	947.92
406.24	1004.09
406.43	952.60
406.62	1057.92
406.81	987.71
407.00	950.26
407.20	1006.43
407.39	1025.15
407.58	990.05
407.77	1057.92
407.96	1081.33
408.15	1090.69
408.34	1153.88
408.54	1132.82
408.73	1179.63
408.92	1074.31
409.11	1196.01
409.30	1071.97
409.49	1093.03
409.68	1097.71
409.87	1086.01
410.07	1210.06
410.26	1118.78
410.45	1217.08
410.64	1228.78
410.83	1317.72
411.02	1158.57
411.21	1163.25
411.40	1301.34
411.59	1355.17
411.78	1252.19
411.98	1263.89
412.17	1242.82
412.36	1242.82
412.55	1355.17
412.74	1387.94
412.93	1310.70
413.12	1327.08
413.31	1364.53
413.50	1329.42
413.69	1469.86
413.88	1364.53
414.07	1378.58
414.26	1425.39
414.45	1350.49
414.64	1357.51
414.83	1631.35
415.02	1411.34
415.22	1500.28
415.41	1533.05
415.60	1561.14
415.79	1537.73
415.98	1540.07
416.17	1570.50
416.36	1600.93
416.55	1603.27
416.74	1699.23
416.93	1593.90
417.12	1563.48
417.31	1678.16
417.50	1703.91
417.69	1823.28
417.88	1715.61
418.07	1631.35
418.26	1783.49
418.45	1739.02
418.64	1860.73
418.83	1799.87
419.02	1741.36
419.21	1811.57
419.39	1842.00
419.58	1872.43
419.77	1654.76
419.96	1851.36
420.15	1994.14
420.34	1867.75
420.53	1874.77
420.72	1865.41
420.91	1865.41
421.10	1820.94
421.29	2012.86
421.48	1895.83
421.67	1844.34
421.86	1926.26
422.05	1884.13
422.24	1907.54
422.43	1905.20
422.61	1963.71
422.80	1989.46
422.99	2069.03
423.18	2005.84
423.37	2101.80
423.56	2024.56
423.75	2143.93
423.94	2059.67
424.13	1813.92
424.32	1905.20
424.50	1928.60
424.69	2134.57
424.88	2099.46
425.07	2132.23
425.26	1940.30
425.45	2043.29
425.64	1909.88
425.83	2066.69
426.01	2057.33
426.20	2017.54
426.39	1959.03
426.58	2010.52
426.77	2062.01
426.96	2040.95
427.15	2045.63
427.33	2148.61
427.52	2078.40
427.71	2066.69
427.90	2057.33
428.09	2272.66
428.28	2120.53
428.46	2176.70
428.65	2106.48
428.84	2195.42
429.03	2352.24
429.22	2150.95
429.40	2363.94
429.59	2190.74
429.78	2122.87
429.97	2125.21
430.16	2277.34
430.34	2263.30
430.53	2312.45
430.72	2340.54
430.91	2300.75
431.10	2270.32
431.28	2335.85
431.47	2349.90
431.66	2459.90
431.85	2284.36
432.03	2546.50
432.22	2417.77
432.41	2392.03
432.60	2380.32
432.79	2431.82
432.97	2464.58
433.16	2518.42
433.35	2502.03
433.54	2417.77
433.72	2492.67
433.91	2640.12
434.10	2370.96
434.28	2476.29
434.47	2583.95
434.66	2588.63
434.85	2581.61
435.03	2569.91
435.22	2560.55
435.41	2719.70
435.59	2548.84
435.78	2689.28
435.97	2588.63
436.16	2644.81
436.34	2672.89
436.53	2731.41
436.72	2703.32
436.90	2686.94
437.09	2670.55
437.28	2651.83
437.46	2700.98
437.65	2677.57
437.84	2750.13
438.02	2808.64
438.21	2855.45
438.40	2708.00
438.58	2780.56
438.77	2806.30
438.96	2738.43
439.14	2939.71
439.33	2878.86
439.52	2937.37
439.70	2986.52
439.89	3063.76
440.08	2939.71
440.26	3075.46
440.45	3162.06
440.63	3056.74
440.82	3075.46
441.01	3087.17
441.19	3089.51
441.38	3281.43
441.57	3269.73
441.75	3243.98
441.94	3323.56
442.12	3133.98
442.31	3300.16
442.50	3199.51
442.68	3335.26
442.87	3206.53
443.05	3330.58
443.24	3449.95
443.43	3300.16
443.61	3309.52
443.80	3508.46
443.98	3297.81
444.17	3159.72
444.35	3393.78
444.54	3466.33
444.73	3398.46
444.91	3463.99
445.10	3433.57
445.28	3452.29
445.47	3353.99
445.65	3405.48
445.84	3339.94
446.02	3456.97
446.21	3548.25
446.39	3363.35
446.58	3478.04
446.77	3456.97
446.95	3272.07
447.14	3499.10
447.32	3531.87
447.51	3471.01
447.69	3468.67
447.88	3346.97
448.06	3595.06
448.25	3461.65
448.43	3473.36
448.62	3564.64
448.80	3543.57
448.99	3550.59
449.17	3562.30
449.36	3611.45
449.54	3559.95
449.73	3679.32
449.91	3712.09
450.10	3627.83
450.28	3824.44
450.46	3758.90
450.65	3789.33
450.83	3726.13
451.02	3700.39
451.20	3716.77
451.39	3782.31
451.57	3836.14
451.76	3707.41
451.94	3882.95
452.13	3871.25
452.31	3815.07
452.49	3871.25
452.68	3749.54
452.86	3953.16
453.05	3810.39
453.23	3850.18
453.42	3824.44
453.60	3864.22
453.78	3882.95
453.97	3751.88
454.15	3983.59
454.34	3922.74
454.52	3964.87
454.70	4014.02
454.89	3983.59
455.07	3971.89
455.26	3992.95
455.44	4044.45
455.62	4098.28
455.81	4109.98
455.99	4147.43
456.17	4248.07
456.36	4032.74
456.54	4201.26
456.73	4161.47
456.91	4299.56
457.09	4245.73
457.28	4395.53
457.46	4315.95
457.64	4166.15
457.83	4156.79
458.01	4301.90
458.19	4381.48
458.38	4191.90
458.56	4571.07
458.74	4451.70
458.93	4372.12
459.11	4259.78
459.29	4521.92
459.48	4381.48
459.66	4573.41
459.84	4496.17
460.03	4561.70
460.21	4526.60
460.39	4517.23
460.57	4461.06
460.76	4540.64
460.94	4573.41
461.12	4620.22
461.31	4608.51
461.49	4578.09
461.67	4601.49
461.85	4793.42
462.04	4650.64
462.22	4821.50
462.40	4580.43
462.59	4732.56
462.77	4809.80
462.95	4713.84
463.13	4774.69
463.32	4760.65
463.50	4896.40
463.68	4821.50
463.86	4753.63
464.05	4603.83
464.23	4919.81
464.41	4828.53
464.59	4765.33
464.78	4945.55
464.96	4915.12
465.14	4784.06
465.32	5048.54
465.50	5235.78
465.69	5053.22
465.87	5034.49
466.05	5001.72
466.23	5029.81
466.41	5125.77
466.60	5256.84
466.78	5060.24
466.96	5060.24
467.14	5034.49
467.32	5177.26
467.51	5149.18
467.69	4882.36
467.87	5011.09
468.05	5210.03
468.23	5081.30
468.41	4985.34
468.60	5100.03
468.78	5118.75
468.96	5240.46
469.14	5074.28
469.32	5254.50
469.50	5163.22
469.69	5226.42
469.87	5350.46
470.05	5479.19
470.23	5427.70
470.41	5406.64
470.59	5500.26
470.77	5425.36
470.95	5474.51
471.14	5322.38
471.32	5324.72
471.50	5507.28
471.68	5523.66
471.86	5514.30
472.04	5497.92
472.22	5643.03
472.40	5760.06
472.58	5708.57
472.77	5706.23
472.95	5797.51
473.13	5891.13
473.31	5802.19
473.49	5813.89
473.67	5731.97
473.85	5858.36
474.03	5863.04
474.21	5980.07
474.39	6045.60
474.57	6066.67
474.75	6223.48
474.93	6225.82
475.12	6202.42
475.30	6272.64
475.48	6050.28
475.66	6361.58
475.84	6265.61
476.02	6410.73
476.20	6375.62
476.38	6480.94
476.56	6476.26
476.74	6478.60
476.92	6532.44
477.10	6473.92
477.28	6600.31
477.46	6602.65
477.64	6850.75
477.82	6724.36
478.00	6932.67
478.18	7016.93
478.36	7150.34
478.54	7005.22
478.72	7070.76
478.90	7002.88
479.08	6972.46
479.26	7208.85
479.44	7365.67
479.62	7183.10
479.80	7368.01
479.98	7478.01
480.16	7494.40
480.34	7297.79
480.52	7370.35
480.70	7646.53
480.88	7583.34
481.06	7798.66
481.24	7857.18
481.41	7918.03
481.59	7915.69
481.77	8018.68
481.95	8058.46
482.13	8063.15
482.31	7925.05
482.49	8109.96
482.67	8222.30
482.85	8318.26
483.03	8503.17
483.21	8526.57
483.39	8489.12
483.57	8685.73
483.74	8709.13
483.92	8816.80
484.10	8617.85
484.28	8758.28
484.46	8973.61
484.64	9085.96
484.82	9004.04
485.00	9303.63
485.18	9268.52
485.35	9282.56
485.53	9397.25
485.71	9441.72
485.89	9561.09
486.07	9327.03
486.25	9521.30
486.43	9682.80
486.61	9802.16
486.78	9844.29
486.96	10001.11
487.14	10186.01
487.32	10068.98
487.50	9980.04
487.68	10164.95
487.85	10083.03
488.03	10438.79
488.21	10480.92
488.39	10663.48
488.57	10572.20
488.75	10789.87
488.92	10855.40
489.10	10686.89
489.28	10541.77
489.46	11227.55
489.64	11199.46
489.81	11225.21
489.99	11265.00
490.17	11353.94
490.35	11318.83
490.53	11485.01
490.70	11578.63
490.88	11646.51
491.06	11829.07
491.24	11503.73
491.41	11676.93
491.59	12105.25
491.77	11913.33
491.95	11962.48
492.13	12049.08
492.30	12175.47
492.48	12383.77
492.66	12226.96
492.84	12414.20
493.01	12444.63
493.19	12250.36
493.37	12957.21
493.54	12580.38
493.72	12613.15
493.90	12711.45
494.08	12741.88
494.25	13083.59
494.43	13217.01
494.61	13156.15
494.79	13415.95
494.96	13004.02
495.14	13497.87
495.32	13451.06
495.49	13645.32
495.67	13727.24
495.85	13717.88
496.02	13577.45
496.20	13694.47
496.38	13823.20
496.55	13715.54
496.73	14015.13
496.91	14202.37
497.09	14284.29
497.26	14396.64
497.44	14303.01
497.62	14398.98
497.79	14338.12
497.97	14630.69
498.14	14572.18
498.32	14719.63
498.50	14972.41
498.67	14934.96
498.85	14883.47
499.03	14803.89
499.20	14979.43
499.38	14897.51
499.56	14956.02
499.73	14913.89
499.91	15442.85
500.08	15564.56
500.26	15096.46
500.44	15138.58
500.61	15454.56
500.79	15283.70
500.97	15555.20
501.14	15798.62
501.32	15756.49
501.49	15749.46
501.67	15435.83
501.84	15791.59
502.02	15730.74
502.20	16016.29
502.37	16133.31
502.55	16039.69
502.72	16348.64
502.90	16299.49
503.07	16070.12
503.25	16446.94
503.43	16308.85
503.60	16318.22
503.78	16465.67
503.95	16320.56
504.13	16173.10
504.30	16662.27
504.48	16390.77
504.65	16781.64
504.83	16615.46
505.01	16856.54
505.18	16765.26
505.36	17053.14
505.53	16786.32
505.71	17266.13
505.88	17095.27
506.06	16865.90
506.23	17422.95
506.41	17198.26
506.58	17481.46
506.76	17385.50
506.93	17493.16
507.11	17444.01
507.28	17448.69
507.46	17362.09
507.63	17743.60
507.81	17523.59
507.98	17488.48
508.16	17813.82
508.33	17825.52
508.50	17659.34
508.68	17919.14
508.85	18228.09
509.03	17940.21
509.20	17926.16
509.38	18090.00
509.55	18298.31
509.73	18218.73
509.90	18050.21
510.08	18499.59
510.25	18230.43
510.42	18249.16
510.60	18590.88
510.77	18572.15
510.95	18686.84
511.12	18375.55
511.30	18600.24
511.47	18773.44
511.64	18836.63
511.82	18895.14
511.99	18675.13
512.17	18944.30
512.34	18897.49
512.51	19108.13
512.69	19445.17
512.86	19246.23
513.04	19147.92
513.21	19391.34
513.38	19365.59
513.56	19506.02
513.73	19309.42
513.90	19049.62
514.08	19410.06
514.25	19262.61
514.43	19562.20
514.60	19515.39
514.77	19786.89
514.95	19861.79
515.12	19704.97
515.29	19756.46
515.47	19683.91
515.64	20161.37
515.81	20292.44
515.99	20173.08
516.16	20245.63
516.33	20053.71
516.51	20177.76
516.68	20226.91
516.85	20341.60
517.03	20446.92
517.20	20297.13
517.37	20135.63
517.54	20524.16
517.72	20535.86
517.89	20592.03
518.06	20664.59
518.24	19955.41
518.41	20577.99
518.58	20961.84
518.75	20821.41
518.93	20879.92
519.10	20755.87
519.27	20683.31
519.45	20697.36
519.62	20999.29
519.79	20872.90
519.96	21090.57
520.14	21071.84
520.31	21069.50
520.48	21238.02
520.65	21296.53
520.83	21521.23
521.00	21125.68
521.17	21563.36
521.34	21207.59
521.52	21413.56
521.69	21453.35
521.86	21844.22
522.03	21703.79
522.20	21778.68
522.38	21813.79
522.55	21776.34
522.72	21635.91
522.89	21813.79
523.07	22005.72
523.24	22038.48
523.41	22164.87
523.58	21802.09
523.75	21982.31
523.92	21916.78
524.10	22153.17
524.27	22071.25
524.44	22354.46
524.61	22333.39
524.78	22359.14
524.96	22544.04
525.13	22405.95
525.30	22309.99
525.47	22363.82
525.64	22291.26
525.81	22267.86
525.98	22504.25
526.16	22579.15
526.33	22408.29
526.50	22892.78
526.67	22621.28
526.84	22714.90
527.01	22754.69
527.18	22874.06
527.36	23253.22
527.53	23257.90
527.70	23159.60
527.87	23213.43
528.04	22970.02
528.21	23183.01
528.38	23213.43
528.55	23175.98
528.72	23344.50
528.89	23489.62
529.07	23337.48
529.24	22845.97
529.41	23681.54
529.58	23616.01
529.75	23520.04
529.92	23428.76
530.09	23393.65
530.26	23557.49
530.43	23716.65
530.60	23737.71
530.77	23463.87
530.94	23800.91
531.11	23754.10
531.28	23946.02
531.46	23836.02
531.63	23718.99
531.80	23864.10
531.97	23922.62
532.14	23971.77
532.31	24041.98
532.48	23740.05
532.65	24004.53
532.82	23604.30
532.99	24013.90
533.16	23971.77
533.33	24201.14
533.50	24636.48
533.67	24622.44
533.84	24070.07
534.01	24287.74
534.18	24027.94
534.35	24439.87
534.52	24261.99
534.69	24727.76
534.86	24627.12
535.03	24568.60
535.20	24397.74
535.37	24566.26
535.54	24868.19
535.71	24240.93
535.88	24741.80
536.05	24467.96
536.22	24879.89
536.38	24900.96
536.55	24886.92
536.72	24592.01
536.89	24819.04
537.06	24622.44
537.23	24893.94
537.40	24760.53
537.57	25123.31
537.74	24987.56
537.91	25263.74
538.08	25172.46
538.25	25120.97
538.42	25188.85
538.59	25235.66
538.75	24980.54
538.92	25160.76
539.09	25062.46
539.26	25336.30
539.43	25326.94
539.60	25586.74
539.77	25352.68
539.94	25282.47
540.11	25406.52
540.28	25556.31
540.44	25326.94
540.61	25727.17
540.78	25605.46
540.95	25455.67
541.12	25458.01
541.29	25539.93
541.46	25729.51
541.62	25687.38
541.79	25954.20
541.96	25373.75
542.13	25951.86
542.30	25621.84
542.47	25949.52
542.63	25975.27
542.80	25858.24
542.97	26333.37
543.14	26361.45
543.31	26324.01
543.48	26342.73
543.64	26473.80
543.81	26644.66
543.98	26132.08
544.15	26464.44
544.32	26239.75
544.48	26895.10
544.65	26118.04
544.82	26363.79
544.99	26363.79
545.16	26277.19
545.32	26354.43
545.49	26717.22
545.66	26562.74
545.83	26434.01
546.00	26647.00
546.16	26710.19
546.33	26206.98
546.50	26305.28
546.67	26642.32
546.83	26361.45
547.00	26733.60
547.17	26876.37
547.34	26829.56
547.50	26927.86
547.67	27040.21
547.84	27065.96
548.00	26803.82
548.17	27028.51
548.34	27178.30
548.51	27630.02
548.67	27314.05
548.84	27040.21
549.01	27222.77
549.18	26785.09
549.34	27143.19
549.51	27037.87
549.68	26855.31
549.84	27215.75
550.01	27314.05
550.18	27178.30
550.34	27260.22
550.51	27108.08
550.68	27412.35
550.84	26930.20
551.01	27615.98
551.18	27290.65
551.34	27314.05
551.51	27395.97
551.68	27608.96
551.84	27438.10
552.01	27690.88
552.18	27527.04
552.34	27520.02
552.51	27936.63
552.68	28205.80
552.84	27637.05
553.01	27510.66
553.18	27686.20
553.34	27763.43
553.51	27395.97
553.67	27807.90
553.84	28233.88
554.01	27845.35
554.17	27866.42
554.34	28367.29
554.51	27711.94
554.67	27955.36
554.84	27843.01
555.00	27840.67
555.17	27517.68
555.33	27845.35
555.50	28072.39
555.67	28128.56
555.83	28093.45
556.00	27990.47
556.16	28386.02
556.33	27779.82
556.50	27889.82
556.66	28217.50
556.83	28409.42
556.99	28430.49
557.16	28423.47
557.32	28397.72
557.49	28376.66
557.65	27967.06
557.82	28357.93
557.98	28472.62
558.15	28374.31
558.32	28301.76
558.48	28507.72
558.65	28060.68
558.81	28493.68
558.98	28430.49
559.14	28201.11
559.31	28538.15
559.47	28189.41
559.64	28381.34
559.80	28222.18
559.97	28664.54
560.13	28676.24
560.30	28594.32
560.46	28723.05
560.63	28423.47
560.79	28659.86
560.96	28816.68
561.12	28704.33
561.29	28556.88
561.45	28748.80
561.61	28917.32
561.78	28755.82
561.94	28788.59
562.11	28893.91
562.27	29013.28
562.44	28580.28
562.60	29046.05
562.77	28594.32
562.93	28669.22
563.10	29097.54
563.26	28947.75
563.42	29170.10
563.59	28599.01
563.75	29345.64
563.92	28844.76
564.08	28606.03
564.24	29027.32
564.41	28716.03
564.57	28957.11
564.74	28842.42
564.90	29340.96
565.07	29099.88
565.23	29055.41
565.39	28704.33
565.56	28978.17
565.72	29074.13
565.88	28987.53
566.05	29076.48
566.21	29013.28
566.38	28713.69
566.54	29294.14
566.70	29273.08
566.87	29277.76
567.03	28961.79
567.19	29378.40
567.36	29254.36
567.52	28952.43
567.68	29338.62
567.85	28936.04
568.01	29034.35
568.17	28982.85
568.34	29144.35
568.50	29160.73
568.66	29186.48
568.83	29322.23
568.99	28837.74
569.15	29252.02
569.32	29198.18
569.48	29432.24
569.64	29228.61
569.81	29371.38
569.97	29535.22
570.13	29450.96
570.30	29408.83
570.46	29364.36
570.62	29289.46
570.78	29551.60
570.95	29347.98
571.11	29425.22
571.27	28772.21
571.43	28826.04
571.60	29474.37
571.76	29411.17
571.92	29085.84
572.09	29579.69
572.25	29418.19
572.41	29429.90
572.57	29432.24
572.74	29202.86
572.90	29249.67
573.06	29422.87
573.22	29614.80
573.38	29462.66
573.55	29296.49
573.71	29537.56
573.87	29752.89
574.03	29212.23
574.20	29425.22
574.36	29373.72
574.52	29317.55
574.68	29198.18
574.84	29570.33
575.01	29418.19
575.17	29989.28
575.33	29462.66
575.49	28994.56
575.65	29806.72
575.82	29668.63
575.98	29687.36
576.14	29177.12
576.30	29390.11
576.46	29773.95
576.62	29380.74
576.79	29677.99
576.95	29652.25
577.11	29170.10
577.27	29876.94
577.43	29736.51
577.59	29521.18
577.75	29593.73
577.92	29415.85
578.08	29401.81
578.24	29123.29
578.40	29827.79
578.56	29977.58
578.72	29607.78
578.88	29970.56
579.04	29830.13
579.21	29563.31
579.37	29254.36
579.53	30059.50
579.69	29727.14
579.85	29907.37
580.01	29720.12
580.17	29596.07
580.33	29621.82
580.49	29252.02
580.65	29696.72
580.82	29467.34
580.98	29528.20
581.14	29582.03
581.30	29788.00
581.46	29919.07
581.62	29605.44
581.78	29289.46
581.94	29668.63
582.10	29652.25
582.26	29879.28
582.42	29427.56
582.58	30230.36
582.74	29687.36
582.90	29902.68
583.06	29900.34
583.22	29673.31
583.38	29462.66
583.54	29743.53
583.70	29928.43
583.86	29649.91
584.02	29860.55
584.18	29935.45
584.34	30066.52
584.50	29755.23
584.66	29975.24
584.82	29610.12
584.98	29738.85
585.14	29839.49
585.30	29710.76
585.46	29759.91
585.62	29289.46
585.78	29869.92
585.94	29460.32
586.10	30068.86
586.26	29928.43
586.42	29575.01
586.58	29949.50
586.74	30101.63
586.90	29575.01
587.06	29610.12
587.22	30022.05
587.38	29696.72
587.54	29916.73
587.70	30146.10
587.86	29802.04
588.02	30054.82
588.18	30099.29
588.34	30064.18
588.49	30092.27
588.65	29919.07
588.81	29720.12
588.97	29778.64
589.13	29809.06
589.29	29954.18
589.45	30167.16
589.61	30192.91
589.77	30466.75
589.93	30223.34
590.08	30190.57
590.24	29991.62
590.40	30092.27
590.56	29984.60
590.72	30150.78
590.88	30153.12
591.04	30146.10
591.20	30197.59
591.35	30239.72
591.51	30639.95
591.67	30366.11
591.83	30677.40
591.99	30141.42
592.15	30235.04
592.31	30574.42
592.46	30078.22
592.62	29956.52
592.78	30232.70
592.94	29724.80
593.10	30242.06
593.26	30258.45
593.41	30218.66
593.57	30567.40
593.73	30260.79
593.89	30625.91
594.05	30008.01
594.20	30087.59
594.36	30279.51
594.52	30272.49
594.68	30185.89
594.84	30064.18
594.99	30307.60
595.15	30513.56
595.31	30347.39
595.47	30504.20
595.62	30225.68
595.78	30504.20
595.94	30466.75
596.10	30401.22
596.25	30286.53
596.41	30153.12
596.57	30012.69
596.73	29780.98
596.88	30410.58
597.04	30331.00
597.20	30719.53
597.36	30616.55
597.51	30265.47
597.67	30600.16
597.83	30377.81
597.99	30295.89
598.14	30253.76
598.30	30167.16
598.46	30110.99
598.61	30230.36
598.77	30237.38
598.93	30441.01
599.09	30267.81
599.24	30658.68
599.40	30370.79
599.56	30403.56
599.71	30302.92
599.87	30588.46
600.03	30359.09
600.18	30431.65
600.34	29996.31
600.50	30501.86
600.65	30328.66
600.81	30424.62
600.97	30342.70
601.12	30686.76
601.28	30443.35
601.44	30452.71
601.59	30586.12
601.75	30326.32
601.91	30370.79
602.06	30171.85
602.22	30579.10
602.37	30288.87
602.53	30405.90
602.69	30525.27
602.84	30316.96
603.00	30426.96
603.16	30380.15
603.31	30485.48
603.47	30560.37
603.62	30345.05
603.78	30555.69
603.94	30143.76
604.09	30312.28
604.25	30228.02
604.40	30323.98
604.56	30810.81
604.71	30412.92
604.87	30389.52
605.03	30764.00
605.18	30225.68
605.34	30539.31
605.49	29848.85
605.65	30504.20
605.80	30089.93
605.96	30052.48
606.12	30031.41
606.27	30630.59
606.43	30022.05
606.58	30354.41
606.74	29788.00
606.89	30356.75
607.05	30546.33
607.20	30209.29
607.36	30309.94
607.51	30391.86
607.67	29947.15
607.82	30237.38
607.98	30213.98
608.13	30415.26
608.29	29837.15
608.44	30235.04
608.60	30476.12
608.75	30312.28
608.91	30314.62
609.06	29916.73
609.22	30225.68
609.37	29673.31
609.53	30246.74
609.68	30141.42
609.84	30120.35
609.99	30096.95
610.15	30061.84
610.30	30204.61
610.46	30106.31
610.61	30363.77
610.76	30258.45
610.92	30218.66
611.07	30199.93
611.23	30078.22
611.38	29790.34
611.54	30073.54
611.69	30096.95
611.84	29991.62
612.00	29916.73
612.15	29553.94
612.31	30178.87
612.46	29834.81
612.62	30005.67
612.77	29776.30
612.92	30012.69
613.08	29830.13
613.23	29907.37
613.39	29860.55
613.54	29942.47
613.69	29764.59
613.85	29722.46
614.00	29780.98
614.15	29743.53
614.31	30087.59
614.46	30153.12
614.62	29729.48
614.77	29586.71
614.92	29605.44
615.08	29764.59
615.23	29687.36
615.38	29736.51
615.54	29628.84
615.69	29900.34
615.84	29177.12
616.00	29429.90
616.15	29759.91
616.30	29837.15
616.46	29666.29
616.61	29670.97
616.76	29624.16
616.92	29708.42
617.07	29605.44
617.22	29621.82
617.37	29450.96
617.53	29132.65
617.68	29273.08
617.83	29516.50
617.99	29195.84
618.14	29654.59
618.29	29432.24
618.45	29448.62
618.60	29790.34
618.75	29071.79
618.90	29596.07
619.06	29324.57
619.21	29170.10
619.36	29252.02
619.51	29235.63
619.67	29130.31
619.82	29092.86
619.97	29212.23
620.12	29240.31
620.28	28804.97
620.43	29275.42
620.58	29495.43
620.73	29132.65
620.89	29619.48
621.04	29479.05
621.19	29422.87
621.34	28954.77
621.49	28926.68
621.65	29111.58
621.80	28975.83
621.95	28699.65
622.10	29062.43
622.25	28931.36
622.41	28882.21
622.56	28870.51
622.71	29195.84
622.86	28919.66
623.01	28893.91
623.16	29230.95
623.32	28659.86
623.47	28975.83
623.62	28903.28
623.77	28699.65
623.92	28802.63
624.07	28414.10
624.23	28762.84
624.38	29160.73
624.53	28772.21
624.68	28835.40
624.83	28819.02
624.98	28933.70
625.13	28905.62
625.29	28804.97
625.44	28954.77
625.59	28842.42
625.74	28704.33
625.89	28570.92
626.04	28856.46
626.19	28727.74
626.34	28554.54
626.49	28554.54
626.65	28315.80
626.80	28467.94
626.95	28416.44
627.10	28318.14
627.25	28219.84
627.40	27988.13
627.55	28030.26
627.70	28163.67
627.85	28126.22
628.00	28142.60
628.15	28051.32
628.30	27819.61
628.45	28182.39
628.60	27910.89
628.76	28411.76
628.91	28093.45
629.06	28278.35
629.21	28203.46
629.36	28247.93
629.51	27922.59
629.66	28292.40
629.81	27754.07
629.96	27845.35
630.11	27976.42
630.26	27992.81
630.41	27985.79
630.56	28095.79
630.71	28067.70
630.86	27761.09
631.01	28114.52
631.16	28304.10
631.31	27941.32
631.46	27875.78
631.61	27850.03
631.76	27873.44
631.91	28166.01
632.06	27814.93
632.21	27938.97
632.36	27740.03
632.51	27859.40
632.66	27920.25
632.81	27716.62
632.96	27782.16
633.10	27810.25
633.25	27707.26
633.40	27894.50
633.55	28128.56
633.70	27505.98
633.85	27634.71
634.00	27557.47
634.15	27585.55
634.30	27899.19
634.45	27559.81
634.60	27480.23
634.75	27552.79
634.90	27388.95
635.05	27709.60
635.19	27393.63
635.34	27805.56
635.49	27360.86
635.64	27908.55
635.79	27292.99
635.94	27314.05
636.09	27580.87
636.24	27243.84
636.39	27255.54
636.53	27267.24
636.68	27112.77
636.83	27414.69
636.98	27372.57
637.13	27424.06
637.28	27477.89
637.43	27658.11
637.57	27566.83
637.72	27484.91
637.87	27136.17
638.02	27037.87
638.17	27337.46
638.32	27023.83
638.46	26979.36
638.61	27068.30
638.76	26747.64
638.91	27009.78
639.06	27332.78
639.20	27051.91
639.35	27405.33
639.50	27241.50
639.65	27271.92
639.80	27267.24
639.94	26859.99
640.09	27084.68
640.24	26834.24
640.39	26923.18
640.54	26698.49
640.68	27182.98
640.83	26616.57
640.98	26412.95
641.13	26529.97
641.27	26712.53
641.42	26796.79
641.57	26862.33
641.72	26862.33
641.86	26492.52
642.01	26602.53
642.16	26567.42
642.31	26529.97
642.45	26843.60
642.60	26120.38
642.75	26654.02
642.90	26422.31
643.04	26607.21
643.19	26403.58
643.34	26377.84
643.48	26668.06
643.63	26462.10
643.78	26904.46
643.93	26572.10
644.07	26295.92
644.22	26443.37
644.37	26574.44
644.51	26525.29
644.66	26712.53
644.81	26148.46
644.95	26263.15
645.10	26192.94
645.25	26326.35
645.39	26562.74
645.54	26361.45
645.69	26380.18
645.83	26174.21
645.98	26244.43
646.13	26279.54
646.27	26249.11
646.42	26335.71
646.57	26026.76
646.71	26204.64
646.86	26258.47
647.00	25998.67
647.15	26146.12
647.30	26265.49
647.44	26263.15
647.59	26359.11
647.74	26103.99
647.88	26148.46
648.03	26338.05
648.17	26164.85
648.32	26300.60
648.47	26153.15
648.61	26174.21
648.76	26157.83
648.90	26410.60
649.05	26061.87
649.20	26150.81
649.34	25865.26
649.49	25696.74
649.63	26031.44
649.78	25729.51
649.92	25860.58
650.07	25930.80
650.21	25893.35
650.36	25921.43
650.51	25539.93
650.65	25706.10
650.80	25551.63
650.94	26106.34
651.09	25493.12
651.23	25614.82
651.38	25811.43
651.52	25624.18
651.67	25546.95
651.81	25713.13
651.96	25715.47
652.10	25462.69
652.25	25640.57
652.39	25694.40
652.54	25837.17
652.68	25455.67
652.83	25713.13
652.97	25722.49
653.12	25879.30
653.26	25235.66
653.41	25883.98
653.55	25495.46
653.70	25617.16
653.84	25319.92
653.99	25230.98
654.13	25617.16
654.27	25233.32
654.42	25233.32
654.56	25598.44
654.71	25385.45
654.85	25340.98
655.00	25315.23
655.14	25678.02
655.29	25605.46
655.43	25120.97
655.57	25043.73
655.72	24856.49
655.86	25153.74
656.01	25029.69
656.15	25109.27
656.30	24943.09
656.44	25413.54
656.58	24711.38
656.73	25174.80
656.87	25422.90
657.01	24999.26
657.16	25125.65
657.30	25099.90
657.45	25324.60
657.59	25001.60
657.73	24687.97
657.88	25179.48
658.02	25191.19
658.16	25165.44
658.31	24840.11
658.45	24746.48
658.60	24535.84
658.74	24900.96
658.88	24797.98
659.03	24840.11
659.17	24861.17
659.31	24631.80
659.46	24793.29
659.60	24634.14
659.74	24985.22
659.89	24713.72
660.03	24666.91
660.17	24713.72
660.32	24364.98
660.46	24224.54
660.60	24444.56
660.74	24266.67
660.89	24592.01
661.03	24116.88
661.17	24285.40
661.32	24306.46
661.46	24105.18
661.60	24187.10
661.74	24320.51
661.89	24182.42
662.03	24561.58
662.17	24311.14
662.31	24023.26
662.46	24100.50
662.60	24088.79
662.74	24093.47
662.88	23737.71
663.03	23601.96
663.17	23840.70
663.31	23733.03
663.45	23803.25
663.60	23576.22
663.74	23730.69
663.88	23873.46
664.02	23772.82
664.17	23704.95
664.31	23604.30
664.45	23768.14
664.59	23955.38
664.73	23800.91
664.88	23456.85
665.02	23531.75
665.16	23065.98
665.30	23433.44
665.44	23302.37
665.59	23243.86
665.73	23396.00
665.87	23374.93
666.01	23569.19
666.15	23435.78
666.29	23042.57
666.44	23267.27
666.58	23276.63
666.72	23108.11
666.86	23063.64
667.00	23461.53
667.14	22970.02
667.28	23117.47
667.43	22766.39
667.57	23012.15
667.71	22724.26
667.85	22869.37
667.99	22682.13
668.13	22860.01
668.27	22869.37
668.41	22913.84
668.56	22546.38
668.70	22972.36
668.84	22965.34
668.98	22611.92
669.12	22558.08
669.26	22731.28
669.40	22635.32
669.54	22602.55
669.68	22462.12
669.82	22546.38
669.96	22178.92
670.10	22160.19
670.25	22267.86
670.39	22132.11
670.53	21884.01
670.67	22260.84
670.81	22120.40
670.95	22094.66
671.09	22239.77
671.23	22080.61
671.37	22558.08
671.51	22038.48
671.65	22080.61
671.79	22043.17
671.93	21713.15
672.07	21860.60
672.21	22260.84
672.35	21570.38
672.49	21757.62
672.63	21703.79
672.77	21441.65
672.91	21532.93
673.05	21460.37
673.19	21575.06
673.33	21603.14
673.47	21406.54
673.61	21261.43
673.75	21277.81
673.89	21448.67
674.03	21128.02
674.17	21083.55
674.31	21369.09
674.45	20989.92
674.59	21378.45
674.73	20917.37
674.87	20739.49
675.01	20865.88
675.15	20589.69
675.29	20753.53
675.43	20645.87
675.56	20975.88
675.70	20676.29
675.84	20531.18
675.98	20137.97
676.12	20767.57
676.26	20912.69
676.40	20437.56
676.54	20753.53
676.68	20238.61
676.82	20294.79
676.96	20524.16
677.10	20093.50
677.23	20081.80
677.37	19534.11
677.51	20149.67
677.65	19838.38
677.79	19946.05
677.93	19707.31
678.07	19749.44
678.21	19693.27
678.34	19576.24
678.48	19520.07
678.62	19417.08
678.76	19248.57
678.90	19297.72
679.04	19220.48
679.18	19278.99
679.31	19281.33
679.45	19140.90
679.59	19056.64
679.73	18965.36
679.87	18934.93
680.00	19014.51
680.14	18728.97
680.28	19005.15
680.42	18986.43
680.56	19047.28
680.70	18878.76
680.83	18897.49
680.97	18679.82
681.11	18607.26
681.25	18492.57
681.39	18497.25
681.52	18448.10
681.66	18670.45
681.80	18422.36
681.94	18387.25
682.07	18422.36
682.21	18354.48
682.35	18185.96
682.49	18061.91
682.62	17954.25
682.76	17832.54
682.90	17823.18
683.04	18017.44
683.17	17783.39
683.31	17855.95
683.45	17729.56
683.59	17680.41
683.72	17799.77
683.86	17916.80
684.00	17741.26
684.13	17516.57
684.27	17628.92
684.41	17200.60
684.55	17128.04
684.68	17273.15
684.82	17067.19
684.96	17205.28
685.09	16933.78
685.23	16849.52
685.37	16793.34
685.50	17053.14
685.64	17067.19
685.78	16884.62
685.91	16908.03
686.05	16978.25
686.19	16847.18
686.32	16547.59
686.46	16505.46
686.60	16449.28
686.73	16655.25
686.87	16226.93
687.01	16149.70
687.14	16121.61
687.28	16255.02
687.42	16042.03
687.55	16170.76
687.69	16100.55
687.82	16063.10
687.96	15892.24
688.10	15917.98
688.23	16170.76
688.37	15747.12
688.50	15847.77
688.64	15789.25
688.78	15761.17
688.91	15852.45
689.05	15531.80
689.18	15428.81
689.32	15173.69
689.46	15274.34
689.59	15382.00
689.73	15197.10
689.86	15243.91
690.00	15176.03
690.13	15248.59
690.27	15105.82
690.41	15161.99
690.54	14747.72
690.68	14792.19
690.81	14941.98
690.95	15154.97
691.08	14902.19
691.22	14986.45
691.35	14846.02
691.49	14670.48
691.62	14665.80
691.76	14710.27
691.89	14740.69
692.03	14155.56
692.16	14181.31
692.30	14300.67
692.43	14073.64
692.57	14303.01
692.70	14176.62
692.84	14181.31
692.97	14183.65
693.11	14054.92
693.24	13743.63
693.38	14101.73
693.51	13680.43
693.65	13965.98
693.78	13973.00
693.92	13729.58
694.05	13682.77
694.19	13584.47
694.32	13369.14
694.45	13525.96
694.59	13247.43
694.72	13214.66
694.86	12985.29
694.99	13062.53
695.13	13310.63
695.26	13095.30
695.39	12884.65
695.53	13341.05
695.66	13064.87
695.80	13116.36
695.93	13078.91
696.07	12922.10
696.20	12996.99
696.33	12662.30
696.47	12444.63
696.60	12905.71
696.73	12716.13
696.87	12737.20
697.00	12542.93
697.14	12367.39
697.27	12521.87
697.40	12063.12
697.54	12332.28
697.67	12133.34
697.80	12233.98
697.94	11957.80
698.07	11915.67
698.21	12056.10
698.34	12299.52
698.47	12095.89
698.61	11829.07
698.74	11859.49
698.87	11955.46
699.01	11737.79
699.14	11702.68
699.27	11541.18
699.40	11765.87
699.54	11515.44
699.67	11620.76
699.80	11372.66
699.94	11447.56
700.07	11166.70
700.20	11337.56
700.34	11225.21
700.47	11227.55
700.60	11403.09
700.73	11293.08
700.87	11253.30
701.00	11082.44
701.13	11110.52
701.26	11028.60
701.40	10981.79
701.53	11021.58
701.66	10906.90
701.79	10902.22
701.93	10836.68
702.06	10806.25
702.19	10546.45
702.32	10583.90
702.46	10494.96
702.59	10518.37
702.72	10319.42
702.85	10497.30
702.99	10338.15
703.12	10321.76
703.25	10078.35
703.38	10436.45
703.51	10270.27
703.65	10207.08
703.78	9870.04
703.91	9970.68
704.04	10047.92
704.17	10284.31
704.31	10113.45
704.44	10076.01
704.57	10008.13
704.70	9706.20
704.83	9788.12
704.96	9856.00
705.10	9596.20
705.23	9460.45
>>>>>End Processed Spectral Data<<<<<
