SpectraSuite Data File
++++++++++++++++++++++++++++++++++++
Date: Fri Oct 18 13:58:17 GMT-05:00 2013
User: bianchi
Dark Spectrum Present: No
Reference Spectrum Present: No
Number of Sampled Component Spectra: 1
Spectrometers: USB2+H05261
Integration Time (usec): 50000 (USB2+H05261)
Spectra Averaged: 1 (USB2+H05261)
Boxcar Smoothing: 0 (USB2+H05261)
Correct for Electrical Dark: No (USB2+H05261)
Strobe/Lamp Enabled: No (USB2+H05261)
Correct for Detector Non-linearity: No (USB2+H05261)
Correct for Stray Light: No (USB2+H05261)
Number of Pixels in Processed Spectrum: 2048
>>>>>Begin Processed Spectral Data<<<<<
365.73	0.00
365.92	0.00
366.12	0.00
366.32	0.00
366.52	0.00
366.72	0.00
366.91	0.00
367.11	0.00
367.31	0.00
367.51	0.00
367.70	0.00
367.90	0.00
368.10	0.00
368.30	0.00
368.49	0.00
368.69	0.00
368.89	0.00
369.09	0.00
369.28	0.00
369.48	0.00
369.68	0.00
369.87	0.00
370.07	0.00
370.27	0.00
370.47	0.00
370.66	114.69
370.86	100.64
371.06	117.03
371.25	126.39
371.45	154.48
371.65	91.28
371.84	145.11
372.04	133.41
372.24	114.69
372.44	74.90
372.63	191.92
372.83	238.73
373.03	227.03
373.22	173.20
373.42	283.20
373.62	245.76
373.81	301.93
374.01	292.57
374.21	304.27
374.40	208.31
374.60	248.10
374.79	276.18
374.99	294.91
375.19	224.69
375.38	278.52
375.58	271.50
375.78	227.03
375.97	294.91
376.17	269.16
376.37	234.05
376.56	264.48
376.76	238.73
376.95	262.14
377.15	220.01
377.35	285.55
377.54	362.78
377.74	322.99
377.93	313.63
378.13	255.12
378.33	262.14
378.52	273.84
378.72	252.78
378.91	327.68
379.11	220.01
379.31	236.39
379.50	325.33
379.70	255.12
379.89	231.71
380.09	299.59
380.28	262.14
380.48	315.97
380.68	348.74
380.87	304.27
381.07	294.91
381.26	383.85
381.46	355.76
381.65	273.84
381.85	311.29
382.04	308.95
382.24	320.65
382.43	294.91
382.63	301.93
382.83	315.97
383.02	397.89
383.22	484.49
383.41	278.52
383.61	353.42
383.80	306.61
384.00	351.08
384.19	348.74
384.39	308.95
384.58	311.29
384.78	397.89
384.97	348.74
385.17	397.89
385.36	442.36
385.56	411.93
385.75	430.66
385.95	428.32
386.14	402.57
386.34	442.36
386.53	437.68
386.72	463.43
386.92	409.59
387.11	320.65
387.31	418.96
387.50	498.53
387.70	482.15
387.89	477.47
388.09	311.29
388.28	376.83
388.48	367.46
388.67	458.74
388.86	477.47
389.06	528.96
389.25	507.90
389.45	503.22
389.64	444.70
389.84	402.57
390.03	498.53
390.22	470.45
390.42	463.43
390.61	435.34
390.81	451.72
391.00	540.66
391.19	491.51
391.39	437.68
391.58	521.94
391.78	575.77
391.97	524.28
392.16	582.79
392.36	585.13
392.55	545.34
392.75	531.30
392.94	528.96
393.13	550.03
393.33	519.60
393.52	564.07
393.71	535.98
393.91	566.41
394.10	578.11
394.29	503.22
394.49	503.22
394.68	594.50
394.88	592.16
395.07	599.18
395.26	617.90
395.46	613.22
395.65	585.13
395.84	613.22
396.04	723.23
396.23	624.92
396.42	622.58
396.62	645.99
396.81	739.61
397.00	664.71
397.19	634.29
397.39	727.91
397.58	662.37
397.77	711.52
397.97	683.44
398.16	711.52
398.35	774.72
398.55	664.71
398.74	667.05
398.93	683.44
399.12	641.31
399.32	744.29
399.51	758.33
399.70	748.97
399.90	774.72
400.09	685.78
400.28	854.30
400.47	837.91
400.67	779.40
400.86	833.23
401.05	748.97
401.24	873.02
401.44	781.74
401.63	835.57
401.82	746.63
402.01	800.46
402.21	891.74
402.40	840.25
402.59	791.10
402.78	809.83
402.97	781.74
403.17	823.87
403.36	784.08
403.55	833.23
403.74	919.83
403.93	938.55
404.13	873.02
404.32	922.17
404.51	952.60
404.70	947.92
404.89	931.53
405.09	908.13
405.28	877.70
405.47	917.49
405.66	964.30
405.85	1053.24
406.05	1039.20
406.24	957.28
406.43	990.05
406.62	1067.28
406.81	1020.47
407.00	1008.77
407.20	919.83
407.39	985.37
407.58	929.19
407.77	1004.09
407.96	933.87
408.15	1109.41
408.34	1135.16
408.54	1121.12
408.73	1123.46
408.92	1109.41
409.11	1146.86
409.30	1179.63
409.49	1167.93
409.68	1242.82
409.87	1118.78
410.07	1226.44
410.26	1093.03
410.45	1186.65
410.64	1135.16
410.83	1268.57
411.02	1282.61
411.21	1345.81
411.40	1205.38
411.59	1282.61
411.78	1228.78
411.98	1226.44
412.17	1247.51
412.36	1394.96
412.55	1343.47
412.74	1373.89
412.93	1451.13
413.12	1273.25
413.31	1418.36
413.50	1455.81
413.69	1432.41
413.88	1420.71
414.07	1394.96
414.26	1521.35
414.45	1364.53
414.64	1411.34
414.83	1460.49
415.02	1519.01
415.22	1523.69
415.41	1448.79
415.60	1444.11
415.79	1568.16
415.98	1570.50
416.17	1650.08
416.36	1724.97
416.55	1530.71
416.74	1603.27
416.93	1652.42
417.12	1645.40
417.31	1753.06
417.50	1755.40
417.69	1856.04
417.88	1774.13
418.07	1650.08
418.26	1701.57
418.45	1743.70
418.64	1837.32
418.83	1799.87
419.02	1842.00
419.21	1867.75
419.39	1797.53
419.58	1795.19
419.77	1919.24
419.96	1909.88
420.15	1830.30
420.34	1832.64
420.53	1933.28
420.72	1839.66
420.91	1823.28
421.10	1919.24
421.29	1914.56
421.48	1891.15
421.67	1959.03
421.86	1968.39
422.05	1867.75
422.24	1944.99
422.43	1984.77
422.61	1984.77
422.80	1989.46
422.99	2012.86
423.18	2024.56
423.37	1989.46
423.56	2087.76
423.75	2057.33
423.94	1930.94
424.13	1907.54
424.32	2057.33
424.50	2104.14
424.69	2071.37
424.88	2019.88
425.07	2015.20
425.26	2045.63
425.45	1975.41
425.64	2050.31
425.83	2054.99
426.01	2015.20
426.20	2104.14
426.39	2073.71
426.58	2031.58
426.77	2019.88
426.96	1984.77
427.15	2113.50
427.33	2122.87
427.52	2087.76
427.71	2031.58
427.90	2132.23
428.09	2214.15
428.28	2143.93
428.46	2235.21
428.65	2186.06
428.84	2251.60
429.03	2263.30
429.22	2263.30
429.40	2172.02
429.59	2282.02
429.78	2183.72
429.97	2160.31
430.16	2120.53
430.34	2333.51
430.53	2347.56
430.72	2296.07
430.91	2246.91
431.10	2216.49
431.28	2225.85
431.47	2312.45
431.66	2410.75
431.85	2389.69
432.03	2443.52
432.22	2415.43
432.41	2401.39
432.60	2579.27
432.79	2420.11
432.97	2497.35
433.16	2546.50
433.35	2466.92
433.54	2471.61
433.72	2504.37
433.91	2438.84
434.10	2548.84
434.28	2588.63
434.47	2513.74
434.66	2600.34
434.85	2516.08
435.03	2597.99
435.22	2544.16
435.41	2635.44
435.59	2640.12
435.78	2513.74
435.97	2719.70
436.16	2619.06
436.34	2567.57
436.53	2710.34
436.72	2703.32
436.90	2745.45
437.09	2761.83
437.28	2693.96
437.46	2719.70
437.65	2724.38
437.84	2923.33
438.02	2712.68
438.21	2911.63
438.40	2761.83
438.58	2745.45
438.77	2974.82
438.96	2818.00
439.14	2939.71
439.33	3108.23
439.52	2906.95
439.70	2981.84
439.89	2958.44
440.08	3014.61
440.26	3054.40
440.45	3117.59
440.63	3105.89
440.82	3222.92
441.01	3204.19
441.19	3124.62
441.38	3129.30
441.57	3229.94
441.75	3267.39
441.94	3162.06
442.12	3262.71
442.31	3318.88
442.50	3290.79
442.68	3239.30
442.87	3236.96
443.05	3396.12
443.24	3431.23
443.43	3304.84
443.61	3321.22
443.80	3478.04
443.98	3304.84
444.17	3236.96
444.35	3452.29
444.54	3463.99
444.73	3372.71
444.91	3461.65
445.10	3515.48
445.28	3513.14
445.47	3501.44
445.65	3309.52
445.84	3552.93
446.02	3571.66
446.21	3545.91
446.39	3447.61
446.58	3487.40
446.77	3407.82
446.95	3442.93
447.14	3424.20
447.32	3733.15
447.51	3557.61
447.69	3482.72
447.88	3417.18
448.06	3674.64
448.25	3541.23
448.43	3503.78
448.62	3646.55
448.80	3566.98
448.99	3562.30
449.17	3709.75
449.36	3515.48
449.54	3611.45
449.73	3777.62
449.91	3763.58
450.10	3632.51
450.28	3662.94
450.46	3709.75
450.65	3723.79
450.83	3754.22
451.02	3758.90
451.20	3901.67
451.39	3728.47
451.57	3770.60
451.76	3770.60
451.94	3864.22
452.13	3882.95
452.31	3934.44
452.49	3681.66
452.68	3892.31
452.86	3875.93
453.05	4014.02
453.23	4016.36
453.42	3929.76
453.60	3904.01
453.78	3976.57
453.97	3845.50
454.15	3875.93
454.34	3929.76
454.52	3995.29
454.70	3976.57
454.89	4119.34
455.07	4009.34
455.26	3999.98
455.44	4107.64
455.62	4009.34
455.81	3953.16
455.99	4173.18
456.17	4053.81
456.36	4037.42
456.54	4196.58
456.73	4187.22
456.91	4257.43
457.09	4173.18
457.28	4472.76
457.46	4222.33
457.64	4374.46
457.83	4376.80
458.01	4353.40
458.19	4456.38
458.38	4315.95
458.56	4219.99
458.74	4475.10
458.93	4400.21
459.11	4498.51
459.29	4430.63
459.48	4503.19
459.66	4393.19
459.84	4486.81
460.03	4514.89
460.21	4587.45
460.39	4655.33
460.57	4603.83
460.76	4620.22
460.94	4589.79
461.12	4629.58
461.31	4634.26
461.49	4617.88
461.67	4697.46
461.85	4807.46
462.04	4629.58
462.22	4978.32
462.40	4772.35
462.59	4711.50
462.77	4891.72
462.95	4784.06
463.13	4746.61
463.32	4760.65
463.50	4858.95
463.68	4849.59
463.86	4889.38
464.05	4833.21
464.23	4788.74
464.41	4896.40
464.59	4854.27
464.78	5034.49
464.96	4947.89
465.14	4863.63
465.32	4985.34
465.50	4971.30
465.69	4915.12
465.87	5025.13
466.05	5083.64
466.23	4957.25
466.41	5107.05
466.60	5305.99
466.78	5046.20
466.96	5109.39
467.14	5128.11
467.32	4980.66
467.51	5123.43
467.69	4849.59
467.87	5170.24
468.05	5130.45
468.23	5177.26
468.41	5146.84
468.60	5205.35
468.78	5355.15
468.96	5214.71
469.14	5245.14
469.32	5469.83
469.50	5291.95
469.69	5467.49
469.87	5495.58
470.05	5416.00
470.23	5521.32
470.41	5465.15
470.59	5488.56
470.77	5334.08
470.95	5432.38
471.14	5568.13
471.32	5418.34
471.50	5598.56
471.68	5610.26
471.86	5554.09
472.04	5692.18
472.22	5813.89
472.40	5535.37
472.58	5645.37
472.77	5696.86
472.95	5799.85
473.13	5776.44
473.31	5865.38
473.49	5769.42
473.67	5820.91
473.85	5959.00
474.03	6008.16
474.21	5951.98
474.39	5970.71
474.57	6029.22
474.75	6179.01
474.93	6253.91
475.12	6162.63
475.30	6333.49
475.48	6207.10
475.66	6359.24
475.84	6377.96
476.02	6558.18
476.20	6260.93
476.38	6345.19
476.56	6572.22
476.74	6565.20
476.92	6539.46
477.10	6663.51
477.28	6565.20
477.46	6593.29
477.64	6679.89
477.82	6958.41
478.00	6939.69
478.18	6984.16
478.36	6965.43
478.54	6920.96
478.72	6977.14
478.90	7194.81
479.08	7325.88
479.26	7309.49
479.44	7269.70
479.62	7424.18
479.80	7171.40
479.98	7639.51
480.16	7412.48
480.34	7679.30
480.52	7644.19
480.70	7625.47
480.88	7679.30
481.06	7756.54
481.24	7756.54
481.41	7812.71
481.59	8009.31
481.77	7875.90
481.95	7894.63
482.13	8210.60
482.31	8201.24
482.49	8351.03
482.67	8161.45
482.85	8575.72
483.03	8620.19
483.21	8468.06
483.39	8587.43
483.57	8505.51
483.74	8692.75
483.92	8732.54
484.10	8723.18
484.28	8854.25
484.46	8957.23
484.64	9109.36
484.82	8903.40
485.00	9158.52
485.18	9387.89
485.35	9439.38
485.53	9525.98
485.71	9350.44
485.89	9680.46
486.07	9533.00
486.25	9689.82
486.43	9682.80
486.61	9743.65
486.78	9886.42
486.96	10188.35
487.14	10111.11
487.32	10150.90
487.50	10141.54
487.68	10317.08
487.85	10499.64
488.03	10593.26
488.21	10581.56
488.39	10490.28
488.57	10541.77
488.75	10483.26
488.92	10796.89
489.10	11047.33
489.28	11208.83
489.46	10939.66
489.64	11119.89
489.81	11431.18
489.99	11332.87
490.17	11265.00
490.35	11566.93
490.53	11428.84
490.70	11700.34
490.88	11613.74
491.06	11705.02
491.24	11662.89
491.41	11983.54
491.59	11683.95
491.77	11859.49
491.95	12175.47
492.13	12257.39
492.30	12273.77
492.48	12259.73
492.66	12390.80
492.84	12634.21
493.01	12479.74
493.19	12779.32
493.37	12746.56
493.54	12812.09
493.72	13032.10
493.90	12994.65
494.08	13114.02
494.25	13085.94
494.43	13219.35
494.61	13523.62
494.79	13266.16
494.96	13282.54
495.14	13593.83
495.32	13774.05
495.49	13621.92
495.67	13729.58
495.85	13516.59
496.02	14012.79
496.20	14054.92
496.38	14038.53
496.55	13851.29
496.73	14380.25
496.91	14398.98
497.09	14352.16
497.26	14373.23
497.44	14164.92
497.62	14352.16
497.79	14579.20
497.97	14679.84
498.14	14696.22
498.32	14927.94
498.50	15096.46
498.67	14815.59
498.85	15187.74
499.03	14899.85
499.20	14885.81
499.38	15342.21
499.56	15140.93
499.73	15426.47
499.91	15531.80
500.08	15541.16
500.26	15304.76
500.44	15618.39
500.61	15466.26
500.79	15590.31
500.97	15777.55
501.14	15864.15
501.32	15562.22
501.49	15824.36
501.67	15726.06
501.84	16009.26
502.02	16081.82
502.20	16009.26
502.37	16423.54
502.55	15999.90
502.72	16121.61
502.90	16332.26
503.07	16154.38
503.25	16435.24
503.43	16350.98
503.60	16451.63
503.78	16629.51
503.95	16573.33
504.13	16648.23
504.30	16823.77
504.48	16643.55
504.65	16994.63
504.83	16755.90
505.01	17020.38
505.18	17132.72
505.36	17252.09
505.53	17263.79
505.71	17128.04
505.88	17151.45
506.06	17238.05
506.23	17247.41
506.41	17294.22
506.58	17699.13
506.76	17446.35
506.93	17476.78
507.11	17722.54
507.28	17621.89
507.46	17865.31
507.63	17858.29
507.81	17788.07
507.98	18029.15
508.16	17816.16
508.33	17755.30
508.50	17940.21
508.68	18125.11
508.85	18279.58
509.03	17968.29
509.20	18204.69
509.38	18438.74
509.55	18354.48
509.73	18361.50
509.90	18405.97
510.08	18569.81
510.25	18209.37
510.42	18422.36
510.60	18574.49
510.77	18609.60
510.95	18785.14
511.12	18602.58
511.30	18838.97
511.47	18892.80
511.64	18733.65
511.82	19185.37
511.99	19035.58
512.17	19398.36
512.34	19164.31
512.51	19180.69
512.69	19288.35
512.86	19276.65
513.04	19515.39
513.21	19206.44
513.38	19426.45
513.56	19648.80
513.73	19555.18
513.90	19421.77
514.08	19337.51
514.25	19611.35
514.43	19719.01
514.60	19639.44
514.77	20063.07
514.95	20156.69
515.12	19826.68
515.29	19864.13
515.47	20013.92
515.64	19955.41
515.81	19894.55
515.99	20446.92
516.16	20393.09
516.33	20446.92
516.51	20081.80
516.68	20184.78
516.85	20402.45
517.03	20809.70
517.20	20444.58
517.37	20657.57
517.54	20725.44
517.72	20741.83
517.89	20479.69
518.06	20542.88
518.24	20587.35
518.41	20655.23
518.58	20910.35
518.75	20940.77
518.93	21350.37
519.10	20975.88
519.27	21069.50
519.45	21111.63
519.62	21259.09
519.79	21324.62
519.96	21205.25
520.14	21186.53
520.31	21214.62
520.48	21561.02
520.65	20971.20
520.83	21259.09
521.00	21350.37
521.17	21394.84
521.34	21469.73
521.52	21689.74
521.69	21944.86
521.86	21788.05
522.03	22061.89
522.20	21881.67
522.38	21923.80
522.55	22305.31
522.72	21661.66
522.89	21994.01
523.07	21895.71
523.24	22003.38
523.41	21965.93
523.58	21860.60
523.75	22019.76
523.92	21975.29
524.10	21902.73
524.27	22389.56
524.44	22448.08
524.61	22569.79
524.78	22569.79
524.96	22342.75
525.13	22565.10
525.30	22569.79
525.47	22670.43
525.64	22693.83
525.81	22960.66
525.98	22771.07
526.16	22920.87
526.33	22871.72
526.50	23335.14
526.67	22995.76
526.84	22675.11
527.01	22691.49
527.18	23103.43
527.36	23307.05
527.53	23250.88
527.70	23388.97
527.87	23365.57
528.04	23541.11
528.21	23328.12
528.38	23197.05
528.55	23726.01
528.72	23592.60
528.89	23466.21
529.07	23276.63
529.24	23285.99
529.41	23637.07
529.58	23529.41
529.75	23431.10
529.92	23784.52
530.09	23215.77
530.26	23934.32
530.43	23744.73
530.60	23985.81
530.77	23939.00
530.94	23711.97
531.11	23751.76
531.28	23931.98
531.46	23931.98
531.63	24292.42
531.80	24238.59
531.97	24306.46
532.14	24519.45
532.31	24290.08
532.48	24474.98
532.65	24226.89
532.82	24086.45
532.99	24332.21
533.16	24315.83
533.33	24285.40
533.50	24732.44
533.67	24381.36
533.84	23915.59
534.01	24362.64
534.18	24182.42
534.35	25064.80
534.52	24451.58
534.69	24587.33
534.86	24563.92
535.03	24465.62
535.20	25078.84
535.37	25043.73
535.54	24643.50
535.71	24364.98
535.88	24334.55
536.05	24893.94
536.22	24966.49
536.38	25177.14
536.55	25085.86
536.72	25057.78
536.89	25275.45
537.06	25029.69
537.23	25015.65
537.40	25109.27
537.57	25039.05
537.74	25219.27
537.91	25401.83
538.08	25572.69
538.25	25628.87
538.42	25212.25
538.59	25310.55
538.75	25235.66
538.92	25326.94
539.09	25687.38
539.26	25553.97
539.43	25678.02
539.60	25514.18
539.77	25668.66
539.94	25834.83
540.11	25736.53
540.28	25802.07
540.44	25530.56
540.61	25556.31
540.78	25909.73
540.95	25635.89
541.12	25514.18
541.29	25883.98
541.46	25961.22
541.62	25797.38
541.79	25834.83
541.96	25853.56
542.13	26143.78
542.30	25942.50
542.47	26242.09
542.63	26169.53
542.80	26455.08
542.97	26686.79
543.14	26501.89
543.31	26277.19
543.48	26448.05
543.64	26881.05
543.81	26665.72
543.98	26328.69
544.15	26462.10
544.32	26859.99
544.48	26808.50
544.65	26415.29
544.82	26579.12
544.99	26431.67
545.16	26707.85
545.32	26607.21
545.49	26820.20
545.66	26965.31
545.83	26602.53
546.00	27112.77
546.16	26913.82
546.33	26745.30
546.50	26459.76
546.67	26724.24
546.83	26478.48
547.00	26972.33
547.17	26986.38
547.34	27140.85
547.50	27103.40
547.67	27580.87
547.84	27342.14
548.00	27262.56
548.17	27232.13
548.34	27037.87
548.51	27285.97
548.67	27400.65
548.84	27475.55
549.01	27681.52
549.18	27300.01
549.34	27417.04
549.51	27363.20
549.68	27262.56
549.84	27297.67
550.01	27374.91
550.18	27681.52
550.34	27414.69
550.51	27796.20
550.68	27644.07
550.84	27447.46
551.01	27513.00
551.18	27171.28
551.34	27232.13
551.51	27768.12
551.68	27744.71
551.84	27796.20
552.01	27772.80
552.18	27992.81
552.34	27412.35
552.51	27653.43
552.68	27953.02
552.84	27756.41
553.01	27882.80
553.18	27702.58
553.34	27828.97
553.51	28175.37
553.67	28077.07
553.84	28329.84
554.01	28261.97
554.17	28308.78
554.34	28151.96
554.51	28107.49
554.67	28203.46
554.84	27985.79
555.00	28315.80
555.17	28411.76
555.33	28016.21
555.50	28414.10
555.67	27957.70
555.83	28280.69
556.00	28119.20
556.16	28311.12
556.33	28116.86
556.50	28297.08
556.66	28573.26
556.83	28741.78
556.99	29092.86
557.16	28524.11
557.32	28755.82
557.49	28844.76
557.65	28620.07
557.82	28414.10
557.98	28327.50
558.15	28643.48
558.32	28561.56
558.48	28683.27
558.65	28432.83
558.81	28591.98
558.98	28683.27
559.14	28858.81
559.31	28615.39
559.47	28786.25
559.64	28954.77
559.80	28795.61
559.97	29139.67
560.13	28437.51
560.30	28711.35
560.46	29001.58
560.63	28709.01
560.79	28767.52
560.96	28676.24
561.12	29081.16
561.29	28814.34
561.45	29240.31
561.61	29039.03
561.78	29010.94
561.94	29509.47
562.11	29312.87
562.27	28847.10
562.44	29134.99
562.60	29237.97
562.77	29233.29
562.93	28500.70
563.10	28900.94
563.26	28828.38
563.42	29355.00
563.59	29308.19
563.75	29284.78
563.92	29193.50
564.08	29212.23
564.24	29343.30
564.41	29003.92
564.57	29284.78
564.74	29139.67
564.90	28952.43
565.07	29603.10
565.23	29347.98
565.39	29249.67
565.56	29500.11
565.72	29165.42
565.88	29387.77
566.05	29237.97
566.21	29139.67
566.38	29380.74
566.54	29434.58
566.70	29591.39
566.87	29329.25
567.03	29579.69
567.19	29757.57
567.36	29673.31
567.52	29326.91
567.68	29462.66
567.85	29497.77
568.01	29448.62
568.17	29532.88
568.34	29722.46
568.50	29558.63
568.66	29347.98
568.83	29909.71
568.99	29401.81
569.15	29333.93
569.32	29474.37
569.48	29525.86
569.64	29626.50
569.81	29614.80
569.97	29448.62
570.13	29708.42
570.30	29656.93
570.46	29820.77
570.62	29467.34
570.78	29326.91
570.95	29677.99
571.11	29844.17
571.27	29542.24
571.43	29312.87
571.60	29642.88
571.76	29254.36
571.92	29682.67
572.09	29766.93
572.25	29759.91
572.41	29755.23
572.57	29867.58
572.74	29928.43
572.90	29879.28
573.06	29715.44
573.22	29298.83
573.38	29986.94
573.55	29432.24
573.71	30221.00
573.87	30099.29
574.03	29893.32
574.20	29942.47
574.36	29743.53
574.52	29848.85
574.68	29654.59
574.84	29888.64
575.01	30244.40
575.17	29715.44
575.33	30089.93
575.49	29713.10
575.65	29766.93
575.82	29881.62
575.98	29766.93
576.14	30071.20
576.30	30089.93
576.46	29797.36
576.62	29914.39
576.79	29968.22
576.95	29802.04
577.11	29848.85
577.27	29790.34
577.43	29970.56
577.59	30148.44
577.75	29893.32
577.92	29542.24
578.08	29827.79
578.24	29867.58
578.40	29865.24
578.56	30005.67
578.72	30038.44
578.88	30050.14
579.04	30209.29
579.21	30209.29
579.37	30300.58
579.53	30061.84
579.69	29944.81
579.85	29790.34
580.01	29879.28
580.17	30228.02
580.33	30110.99
580.49	30038.44
580.65	30047.80
580.82	30326.32
580.98	30040.78
581.14	29979.92
581.30	30520.59
581.46	29886.30
581.62	29687.36
581.78	29916.73
581.94	30401.22
582.10	30012.69
582.26	30082.91
582.42	30272.49
582.58	30354.41
582.74	30183.55
582.90	30108.65
583.06	30307.60
583.22	29851.19
583.38	29940.13
583.54	30251.42
583.70	29935.45
583.86	29926.09
584.02	29986.94
584.18	29982.26
584.34	30218.66
584.50	30101.63
584.66	30031.41
584.82	29689.70
584.98	30000.99
585.14	29694.38
585.30	29806.72
585.46	30129.72
585.62	29797.36
585.78	29916.73
585.94	29642.88
586.10	30089.93
586.26	30146.10
586.42	30167.16
586.58	30646.97
586.74	30085.25
586.90	30008.01
587.06	29773.95
587.22	30118.01
587.38	30106.31
587.54	30183.55
587.70	30476.12
587.86	30110.99
588.02	30532.29
588.18	30637.61
588.34	30312.28
588.49	30132.06
588.65	30335.68
588.81	30295.89
588.97	30281.85
589.13	30272.49
589.29	30199.93
589.45	30529.95
589.61	30408.24
589.77	30398.88
589.93	30593.14
590.08	30635.27
590.24	30607.19
590.40	30127.38
590.56	30642.29
590.72	30019.71
590.88	30218.66
591.04	30249.08
591.20	30384.83
591.35	30602.50
591.51	30965.29
591.67	30377.81
591.83	30909.11
591.99	30742.94
592.15	30153.12
592.31	30349.73
592.46	30366.11
592.62	30183.55
592.78	30274.83
592.94	30511.22
593.10	30529.95
593.26	30597.82
593.41	30707.83
593.57	30749.96
593.73	30775.70
593.89	30473.78
594.05	30483.14
594.20	30567.40
594.36	30419.94
594.52	30171.85
594.68	30146.10
594.84	30298.23
594.99	30703.15
595.15	30623.57
595.31	30558.03
595.47	30785.07
595.62	30604.84
595.78	30654.00
595.94	30789.75
596.10	30724.21
596.25	30611.87
596.41	30197.59
596.57	30593.14
596.73	30499.52
596.88	30576.76
597.04	30600.16
597.20	30565.06
597.36	30436.33
597.51	30988.69
597.67	30658.68
597.83	30529.95
597.99	30588.46
598.14	30728.89
598.30	30822.51
598.46	30532.29
598.61	30654.00
598.77	30441.01
598.93	30377.81
599.09	30953.58
599.24	30696.13
599.40	31154.87
599.56	31101.04
599.71	30719.53
599.87	31021.46
600.03	30696.13
600.18	30375.47
600.34	30829.54
600.50	30579.10
600.65	30820.17
600.81	30792.09
600.97	30696.13
601.12	30960.61
601.28	30857.62
601.44	30794.43
601.59	30911.46
601.75	30696.13
601.91	30827.20
602.06	30747.62
602.22	30829.54
602.37	30663.36
602.53	30607.19
602.69	30787.41
602.84	30609.53
603.00	30476.12
603.16	31033.16
603.31	30756.98
603.47	30764.00
603.62	30520.59
603.78	30469.09
603.94	30579.10
604.09	30569.74
604.25	30366.11
604.40	30735.92
604.56	30635.27
604.71	30836.56
604.87	30740.60
605.03	30916.14
605.18	30466.75
605.34	30522.93
605.49	30724.21
605.65	30668.04
605.80	30527.61
605.96	30412.92
606.12	30520.59
606.27	30881.03
606.43	30319.30
606.58	30806.13
606.74	30588.46
606.89	30668.04
607.05	30906.77
607.20	30583.78
607.36	30438.67
607.51	30806.13
607.67	30321.64
607.82	30469.09
607.98	30370.79
608.13	30047.80
608.29	30342.70
608.44	30307.60
608.60	30543.99
608.75	30635.27
608.91	30663.36
609.06	30726.55
609.22	30836.56
609.37	30232.70
609.53	30132.06
609.68	30225.68
609.84	30445.69
609.99	30450.37
610.15	30508.88
610.30	30504.20
610.46	30721.87
610.61	30768.68
610.76	30354.41
610.92	30452.71
611.07	30394.20
611.23	30103.97
611.38	30228.02
611.54	30583.78
611.69	30064.18
611.84	30225.68
612.00	30326.32
612.15	30513.56
612.31	30663.36
612.46	30183.55
612.62	30345.05
612.77	30061.84
612.92	30209.29
613.08	30595.48
613.23	30349.73
613.39	30415.26
613.54	29972.90
613.69	30368.45
613.85	30199.93
614.00	30396.54
614.15	30380.15
614.31	30132.06
614.46	30373.13
614.62	29785.66
614.77	30125.04
614.92	30415.26
615.08	30118.01
615.23	30101.63
615.38	30373.13
615.54	29724.80
615.69	30043.12
615.84	30089.93
616.00	30031.41
616.15	29933.11
616.30	30080.56
616.46	30089.93
616.61	30005.67
616.76	29926.09
616.92	29689.70
617.07	30078.22
617.22	30000.99
617.37	29663.95
617.53	29757.57
617.68	29809.06
617.83	29841.83
617.99	29577.35
618.14	30061.84
618.29	29652.25
618.45	29708.42
618.60	29614.80
618.75	29956.52
618.90	29575.01
619.06	29883.96
619.21	29675.65
619.36	29743.53
619.51	29682.67
619.67	29528.20
619.82	29668.63
619.97	29504.79
620.12	29411.17
620.28	29689.70
620.43	29673.31
620.58	29802.04
620.73	29490.75
620.89	30050.14
621.04	29472.03
621.19	29479.05
621.34	29563.31
621.49	29427.56
621.65	29329.25
621.80	29869.92
621.95	29078.82
622.10	29053.07
622.25	29467.34
622.41	29345.64
622.56	29486.07
622.71	29516.50
622.86	29385.43
623.01	29165.42
623.16	29315.21
623.32	29317.55
623.47	28973.49
623.62	29322.23
623.77	29202.86
623.92	29432.24
624.07	28938.38
624.23	29240.31
624.38	29247.33
624.53	29088.18
624.68	29242.65
624.83	29034.35
624.98	28999.24
625.13	29233.29
625.29	29268.40
625.44	29340.96
625.59	28985.19
625.74	28634.11
625.89	28828.38
626.04	28854.12
626.19	29034.35
626.34	28851.78
626.49	28584.96
626.65	28917.32
626.80	28718.37
626.95	29064.77
627.10	28924.34
627.25	28865.83
627.40	28701.99
627.55	28451.55
627.70	28472.62
627.85	28709.01
628.00	28549.85
628.15	28645.82
628.30	28313.46
628.45	28746.46
628.60	27896.85
628.76	28498.36
628.91	28524.11
629.06	28517.09
629.21	28381.34
629.36	28851.78
629.51	28154.30
629.66	28421.13
629.81	28268.99
629.96	28320.48
630.11	28582.62
630.26	28613.05
630.41	28201.11
630.56	28173.03
630.71	28194.09
630.86	28584.96
631.01	28493.68
631.16	28144.94
631.31	28451.55
631.46	28238.56
631.61	28123.88
631.76	28168.35
631.91	28259.63
632.06	28306.44
632.21	27910.89
632.36	27990.47
632.51	27857.06
632.66	28163.67
632.81	27800.88
632.96	28070.04
633.10	27983.44
633.25	28198.77
633.40	27981.10
633.55	27988.13
633.70	27604.28
633.85	27725.99
634.00	27852.38
634.15	28156.64
634.30	27758.75
634.45	27765.78
634.60	27803.22
634.75	27632.36
634.90	27971.74
635.05	27807.90
635.19	28081.75
635.34	28393.04
635.49	28037.28
635.64	27906.21
635.79	27831.31
635.94	27398.31
636.09	27988.13
636.24	27896.85
636.39	27271.92
636.53	27632.36
636.68	27786.84
636.83	27651.09
636.98	27681.52
637.13	27290.65
637.28	27597.26
637.43	27658.11
637.57	27545.76
637.72	27765.78
637.87	27960.04
638.02	27150.21
638.17	27585.55
638.32	27372.57
638.46	27360.86
638.61	27171.28
638.76	26953.61
638.91	27295.33
639.06	27260.22
639.20	27307.03
639.35	27157.24
639.50	27377.25
639.65	27620.66
639.80	27454.48
639.94	27693.22
640.09	27679.18
640.24	27571.51
640.39	27063.61
640.54	27122.13
640.68	27213.41
640.83	26824.88
640.98	27070.64
641.13	26944.25
641.27	27084.68
641.42	26801.47
641.57	27129.15
641.72	27328.10
641.86	26944.25
642.01	26822.54
642.16	26834.24
642.31	26820.20
642.45	27220.43
642.60	27065.96
642.75	26806.16
642.90	26710.19
643.04	26740.62
643.19	26719.56
643.34	26937.23
643.48	26864.67
643.63	27227.45
643.78	26895.10
643.93	26836.58
644.07	26630.62
644.22	26675.09
644.37	26967.65
644.51	26689.13
644.66	26663.38
644.81	26441.03
644.95	26298.26
645.10	26834.24
645.25	26829.56
645.39	26789.77
645.54	26677.43
645.69	26536.99
645.83	26689.13
645.98	26574.44
646.13	26602.53
646.27	26579.12
646.42	26511.25
646.57	26223.36
646.71	26368.48
646.86	26553.38
647.00	26450.39
647.15	26300.60
647.30	26934.88
647.44	26314.64
647.59	26260.81
647.74	26487.84
647.88	26260.81
648.03	26749.98
648.17	26513.59
648.32	26644.66
648.47	26607.21
648.61	26565.08
648.76	26274.85
648.90	26588.49
649.05	26370.82
649.20	26096.97
649.34	26316.98
649.49	25989.31
649.63	25832.49
649.78	26073.57
649.92	26029.10
650.07	26024.42
650.21	26286.56
650.36	26569.76
650.51	25795.04
650.65	26071.23
650.80	26221.02
650.94	26103.99
651.09	25949.52
651.23	25781.00
651.38	26228.04
651.52	25905.05
651.67	25940.16
651.81	26103.99
651.96	25919.09
652.10	26012.71
652.25	26010.37
652.39	25919.09
652.54	25972.92
652.68	25956.54
652.83	25640.57
652.97	25837.17
653.12	25902.71
653.26	25230.98
653.41	26211.66
653.55	25357.36
653.70	25565.67
653.84	25530.56
653.99	25914.41
654.13	25556.31
654.27	25907.39
654.42	25851.22
654.56	25678.02
654.71	25710.78
654.85	25795.04
655.00	25778.66
655.14	25621.84
655.29	25802.07
655.43	26045.48
655.57	25502.48
655.72	25788.02
655.86	25322.26
656.01	25617.16
656.15	25238.00
656.30	25294.17
656.44	25406.52
656.58	25481.41
656.73	25500.14
656.87	25703.76
657.01	25078.84
657.16	25247.36
657.30	25071.82
657.45	25387.79
657.59	25462.69
657.73	25284.81
657.88	25418.22
658.02	24982.88
658.16	25193.53
658.31	25127.99
658.45	25179.48
658.60	24737.12
658.74	24826.06
658.88	25238.00
659.03	25062.46
659.17	24936.07
659.31	25287.15
659.46	25392.47
659.60	25053.09
659.74	25144.38
659.89	24954.79
660.03	24748.82
660.17	24676.27
660.32	24489.03
660.46	24952.45
660.60	24444.56
660.74	24758.19
660.89	24870.53
661.03	24662.22
661.17	24671.59
661.32	24765.21
661.46	24812.02
661.60	24570.94
661.74	24720.74
661.89	24650.52
662.03	24496.05
662.17	24418.81
662.31	24196.46
662.46	24486.68
662.60	24353.27
662.74	24390.72
662.88	23941.34
663.03	23920.28
663.17	23953.04
663.31	23744.73
663.45	24004.53
663.60	24301.78
663.74	23810.27
663.88	23915.59
664.02	24477.32
664.17	24126.24
664.31	24149.65
664.45	23917.93
664.59	24023.26
664.73	24065.39
664.88	24049.00
665.02	23576.22
665.16	23552.81
665.30	24170.71
665.44	23627.71
665.59	23489.62
665.73	23440.47
665.87	23255.56
666.01	23695.58
666.15	23735.37
666.29	23714.31
666.44	23693.24
666.58	23566.85
666.72	23424.08
666.86	23543.45
667.00	23356.21
667.14	23215.77
667.28	23255.56
667.43	23293.01
667.57	23225.14
667.71	22981.72
667.85	22733.62
667.99	23140.88
668.13	22796.82
668.27	22967.68
668.41	23126.83
668.56	22977.04
668.70	23061.30
668.84	22944.27
668.98	23332.80
669.12	23051.94
669.26	22988.74
669.40	22801.50
669.54	22672.77
669.68	22408.29
669.82	22586.17
669.96	22581.49
670.10	22424.67
670.25	22380.20
670.39	22312.33
670.53	22450.42
670.67	22127.42
670.81	22539.36
670.95	22719.58
671.09	22106.36
671.23	22267.86
671.37	22354.46
671.51	22583.83
671.65	22408.29
671.79	22356.80
671.93	21900.39
672.07	21996.35
672.21	22108.70
672.35	22097.00
672.49	21748.26
672.63	21673.36
672.77	21525.91
672.91	21561.02
673.05	21759.96
673.19	21998.70
673.33	21764.64
673.47	21891.03
673.61	21605.49
673.75	21692.08
673.89	21488.46
674.03	21640.59
674.17	21528.25
674.31	21336.32
674.45	21186.53
674.59	21219.30
674.73	21479.10
674.87	21406.54
675.01	21097.59
675.15	21048.44
675.29	20898.64
675.43	21373.77
675.56	21312.92
675.70	21142.06
675.84	20961.84
675.98	20746.51
676.12	20854.17
676.26	21109.29
676.40	20673.95
676.54	20805.02
676.68	20549.90
676.82	20807.36
676.96	20629.48
677.10	20634.16
677.23	20484.37
677.37	20372.02
677.51	20643.52
677.65	20053.71
677.79	20098.18
677.93	20240.95
678.07	20376.70
678.21	20191.80
678.34	19861.79
678.48	19843.06
678.62	19625.39
678.76	19730.72
678.90	19426.45
679.04	19623.05
679.18	19850.08
679.31	19484.96
679.45	19426.45
679.59	19260.27
679.73	19360.91
679.87	19204.10
680.00	19260.27
680.14	18644.71
680.28	19536.45
680.42	19087.07
680.56	19250.91
680.70	19243.88
680.83	18977.06
680.97	18761.73
681.11	18948.98
681.25	18712.58
681.39	19021.53
681.52	18801.52
681.66	18499.59
681.80	18190.64
681.94	18726.63
682.07	18649.39
682.21	18417.68
682.35	18354.48
682.49	18443.42
682.62	18197.67
682.76	18302.99
682.90	18363.84
683.04	18036.17
683.17	18239.79
683.31	18314.69
683.45	18125.11
683.59	17956.59
683.72	17940.21
683.86	17869.99
684.00	17666.36
684.13	17619.55
684.27	17731.90
684.41	17652.32
684.55	17387.84
684.68	17387.84
684.82	17245.07
684.96	17165.49
685.09	17142.08
685.23	17067.19
685.37	17444.01
685.50	17537.63
685.64	17076.55
685.78	16929.09
685.91	17130.38
686.05	17090.59
686.19	16912.71
686.32	17116.34
686.46	16805.05
686.60	16596.74
686.73	16540.57
686.87	16662.27
687.01	16350.98
687.14	16582.70
687.28	16365.03
687.42	16475.03
687.55	16353.32
687.69	16526.52
687.82	16259.70
687.96	15999.90
688.10	16416.52
688.23	16119.27
688.37	16049.05
688.50	15939.05
688.64	15887.56
688.78	16126.29
688.91	15861.81
689.05	15674.57
689.18	15384.34
689.32	15440.51
689.46	15545.84
689.59	15344.55
689.73	15531.80
689.86	15606.69
690.00	15180.71
690.13	15456.90
690.27	15440.51
690.41	15492.01
690.54	15157.31
690.68	14941.98
690.81	15145.61
690.95	15211.14
691.08	15115.18
691.22	15236.89
691.35	15066.03
691.49	14923.26
691.62	15056.67
691.76	14867.08
691.89	14452.81
692.03	14480.89
692.16	14434.08
692.30	14497.28
692.43	14129.81
692.57	14366.21
692.70	14618.99
692.84	14209.39
692.97	14312.38
693.11	14235.14
693.24	14080.66
693.38	13977.68
693.51	14153.22
693.65	14225.78
693.78	13989.38
693.92	13912.14
694.05	14003.43
694.19	13895.76
694.32	13752.99
694.45	13532.98
694.59	13678.09
694.72	13338.71
694.86	13170.19
694.99	13317.65
695.13	13469.78
695.26	13465.10
695.39	13231.05
695.53	13373.82
695.66	13207.64
695.80	13280.20
695.93	13109.34
696.07	13170.19
696.20	13263.82
696.33	12947.84
696.47	13048.49
696.60	12910.40
696.73	12858.90
696.87	12802.73
697.00	12884.65
697.14	12496.12
697.27	12390.80
697.40	12482.08
697.54	12329.94
697.67	12383.77
697.80	12374.41
697.94	12336.96
698.07	12299.52
698.21	12236.32
698.34	12180.15
698.47	12063.12
698.61	12184.83
698.74	12259.73
698.87	12123.98
699.01	12123.98
699.14	11777.58
699.27	11950.78
699.40	11683.95
699.54	11707.36
699.67	11733.11
699.80	11716.72
699.94	11536.50
700.07	11751.83
700.20	11330.53
700.34	11248.61
700.47	11541.18
700.60	11323.51
700.73	11318.83
700.87	11279.04
701.00	11302.45
701.13	11091.80
701.26	11026.26
701.40	11382.03
701.53	11037.97
701.66	10993.50
701.79	11152.65
701.93	11096.48
702.06	10621.35
702.19	10822.64
702.32	10729.02
702.46	10560.50
702.59	10593.26
702.72	10668.16
702.85	10611.99
702.99	10434.11
703.12	10312.40
703.25	10244.52
703.38	10560.50
703.51	10277.29
703.65	10441.13
703.78	10083.03
703.91	10382.62
704.04	10326.44
704.17	10296.02
704.31	10312.40
704.44	10054.94
704.57	10008.13
704.70	9912.17
704.83	9734.29
704.96	9706.20
705.10	9755.35
705.23	9944.94
>>>>>End Processed Spectral Data<<<<<
