SpectraSuite Data File
++++++++++++++++++++++++++++++++++++
Date: Fri Oct 18 13:58:38 GMT-05:00 2013
User: bianchi
Dark Spectrum Present: No
Reference Spectrum Present: No
Number of Sampled Component Spectra: 1
Spectrometers: USB2+H05261
Integration Time (usec): 50000 (USB2+H05261)
Spectra Averaged: 1 (USB2+H05261)
Boxcar Smoothing: 0 (USB2+H05261)
Correct for Electrical Dark: No (USB2+H05261)
Strobe/Lamp Enabled: No (USB2+H05261)
Correct for Detector Non-linearity: No (USB2+H05261)
Correct for Stray Light: No (USB2+H05261)
Number of Pixels in Processed Spectrum: 2048
>>>>>Begin Processed Spectral Data<<<<<
365.73	0.00
365.92	0.00
366.12	0.00
366.32	0.00
366.52	0.00
366.72	0.00
366.91	0.00
367.11	0.00
367.31	0.00
367.51	0.00
367.70	0.00
367.90	0.00
368.10	0.00
368.30	0.00
368.49	0.00
368.69	0.00
368.89	0.00
369.09	0.00
369.28	0.00
369.48	0.00
369.68	0.00
369.87	0.00
370.07	0.00
370.27	0.00
370.47	0.00
370.66	72.56
370.86	114.69
371.06	98.30
371.25	194.26
371.45	72.56
371.65	215.33
371.84	135.75
372.04	163.84
372.24	77.24
372.44	173.20
372.63	156.82
372.83	203.63
373.03	147.45
373.22	215.33
373.42	220.01
373.62	238.73
373.81	152.13
374.01	271.50
374.21	205.97
374.40	208.31
374.60	280.86
374.79	180.22
374.99	166.18
375.19	315.97
375.38	273.84
375.58	243.42
375.78	297.25
375.97	198.95
376.17	243.42
376.37	224.69
376.56	308.95
376.76	210.65
376.95	201.29
377.15	313.63
377.35	220.01
377.54	287.89
377.74	203.63
377.93	332.36
378.13	294.91
378.33	290.23
378.52	292.57
378.72	250.44
378.91	341.72
379.11	205.97
379.31	320.65
379.50	313.63
379.70	411.93
379.89	283.20
380.09	325.33
380.28	301.93
380.48	227.03
380.68	330.02
380.87	290.23
381.07	397.89
381.26	344.06
381.46	397.89
381.65	362.78
381.85	301.93
382.04	320.65
382.24	379.17
382.43	304.27
382.63	255.12
382.83	318.31
383.02	334.70
383.22	430.66
383.41	400.23
383.61	353.42
383.80	442.36
384.00	381.51
384.19	308.95
384.39	386.19
384.58	327.68
384.78	395.55
384.97	369.80
385.17	346.40
385.36	325.33
385.56	372.15
385.75	337.04
385.95	315.97
386.14	388.53
386.34	479.81
386.53	381.51
386.72	447.04
386.92	358.10
387.11	449.38
387.31	458.74
387.50	423.64
387.70	472.79
387.89	503.22
388.09	458.74
388.28	447.04
388.48	402.57
388.67	409.59
388.86	407.25
389.06	437.68
389.25	500.87
389.45	482.15
389.64	393.21
389.84	465.77
390.03	507.90
390.22	547.69
390.42	468.11
390.61	411.93
390.81	433.00
391.00	526.62
391.19	477.47
391.39	456.40
391.58	524.28
391.78	500.87
391.97	477.47
392.16	507.90
392.36	550.03
392.55	547.69
392.75	557.05
392.94	493.85
393.13	552.37
393.33	528.96
393.52	519.60
393.71	580.45
393.91	554.71
394.10	589.82
394.29	610.88
394.49	624.92
394.68	627.26
394.88	587.47
395.07	645.99
395.26	723.23
395.46	603.86
395.65	554.71
395.84	596.84
396.04	657.69
396.23	641.31
396.42	674.07
396.62	664.71
396.81	688.12
397.00	702.16
397.19	697.48
397.39	603.86
397.58	667.05
397.77	664.71
397.97	753.65
398.16	620.24
398.35	770.04
398.55	737.27
398.74	662.37
398.93	660.03
399.12	760.67
399.32	723.23
399.51	657.69
399.70	767.70
399.90	695.14
400.09	805.14
400.28	746.63
400.47	772.38
400.67	788.76
400.86	723.23
401.05	812.17
401.24	793.44
401.44	798.12
401.63	837.91
401.82	765.36
402.01	793.44
402.21	760.67
402.40	772.38
402.59	891.74
402.78	880.04
402.97	786.42
403.17	849.61
403.36	833.23
403.55	873.02
403.74	915.15
403.93	870.68
404.13	938.55
404.32	905.79
404.51	997.07
404.70	971.32
404.89	936.21
405.09	976.00
405.28	884.72
405.47	875.36
405.66	945.58
405.85	943.24
406.05	992.39
406.24	983.02
406.43	1071.97
406.62	959.62
406.81	1055.58
407.00	1018.13
407.20	959.62
407.39	964.30
407.58	1034.52
407.77	1071.97
407.96	1076.65
408.15	1039.20
408.34	1090.69
408.54	1036.86
408.73	1083.67
408.92	1090.69
409.11	1137.50
409.30	1123.46
409.49	1095.37
409.68	1111.75
409.87	987.71
410.07	1174.95
410.26	1259.21
410.45	1249.85
410.64	1224.10
410.83	1210.06
411.02	1163.25
411.21	1146.86
411.40	1221.76
411.59	1329.42
411.78	1240.48
411.98	1231.12
412.17	1238.14
412.36	1299.00
412.55	1336.45
412.74	1373.89
412.93	1299.00
413.12	1303.68
413.31	1423.05
413.50	1280.27
413.69	1437.09
413.88	1441.77
414.07	1427.73
414.26	1507.30
414.45	1437.09
414.64	1437.09
414.83	1439.43
415.02	1558.80
415.22	1486.24
415.41	1528.37
415.60	1500.28
415.79	1521.35
415.98	1563.48
416.17	1551.78
416.36	1607.95
416.55	1575.18
416.74	1586.88
416.93	1614.97
417.12	1542.41
417.31	1661.78
417.50	1757.74
417.69	1703.91
417.88	1774.13
418.07	1645.40
418.26	1717.95
418.45	1799.87
418.64	1886.47
418.83	1900.52
419.02	1760.08
419.21	1872.43
419.39	1886.47
419.58	1685.19
419.77	1825.62
419.96	1851.36
420.15	1881.79
420.34	1893.49
420.53	1710.93
420.72	1933.28
420.91	1942.64
421.10	1853.70
421.29	1987.11
421.48	1998.82
421.67	2026.90
421.86	1884.13
422.05	2001.16
422.24	1912.22
422.43	1935.62
422.61	1949.67
422.80	2040.95
422.99	2015.20
423.18	1996.48
423.37	1935.62
423.56	2050.31
423.75	2005.84
423.94	1907.54
424.13	1830.30
424.32	1952.01
424.50	2010.52
424.69	2026.90
424.88	2047.97
425.07	2174.36
425.26	1991.80
425.45	2026.90
425.64	2017.54
425.83	2052.65
426.01	2062.01
426.20	2001.16
426.39	2090.10
426.58	2078.40
426.77	2043.29
426.96	2132.23
427.15	2057.33
427.33	2186.06
427.52	2162.66
427.71	2186.06
427.90	2263.30
428.09	2087.76
428.28	2136.91
428.46	2218.83
428.65	2293.72
428.84	2232.87
429.03	2253.94
429.22	2237.55
429.40	2239.89
429.59	2193.08
429.78	2214.15
429.97	2083.08
430.16	2221.17
430.34	2349.90
430.53	2340.54
430.72	2293.72
430.91	2223.51
431.10	2328.83
431.28	2359.26
431.47	2324.15
431.66	2452.88
431.85	2406.07
432.03	2434.16
432.22	2441.18
432.41	2438.84
432.60	2396.71
432.79	2340.54
432.97	2562.89
433.16	2532.46
433.35	2422.45
433.54	2516.08
433.72	2396.71
433.91	2427.14
434.10	2459.90
434.28	2495.01
434.47	2506.71
434.66	2471.61
434.85	2590.97
435.03	2511.39
435.22	2490.33
435.41	2654.17
435.59	2576.93
435.78	2642.46
435.97	2593.31
436.16	2647.15
436.34	2583.95
436.53	2640.12
436.72	2848.43
436.90	2689.28
437.09	2691.62
437.28	2766.51
437.46	2691.62
437.65	2703.32
437.84	2691.62
438.02	2850.77
438.21	2815.66
438.40	2855.45
438.58	2911.63
438.77	2897.58
438.96	2843.75
439.14	2923.33
439.33	2864.82
439.52	3038.02
439.70	3063.76
439.89	3126.96
440.08	2993.55
440.26	2953.76
440.45	3124.62
440.63	3162.06
440.82	3021.63
441.01	3002.91
441.19	3112.91
441.38	3096.53
441.57	3337.60
441.75	3150.36
441.94	3272.07
442.12	3332.92
442.31	3255.69
442.50	3391.44
442.68	3197.17
442.87	3356.33
443.05	3293.13
443.24	3321.22
443.43	3421.86
443.61	3253.34
443.80	3494.42
443.98	3314.20
444.17	3335.26
444.35	3365.69
444.54	3499.10
444.73	3414.84
444.91	3424.20
445.10	3459.31
445.28	3389.10
445.47	3480.38
445.65	3489.74
445.84	3426.54
446.02	3510.80
446.21	3531.87
446.39	3552.93
446.58	3646.55
446.77	3571.66
446.95	3442.93
447.14	3496.76
447.32	3531.87
447.51	3363.35
447.69	3440.59
447.88	3482.72
448.06	3524.85
448.25	3494.42
448.43	3660.60
448.62	3536.55
448.80	3524.85
448.99	3478.04
449.17	3611.45
449.36	3538.89
449.54	3735.50
449.73	3768.26
449.91	3695.71
450.10	3691.02
450.28	3719.11
450.46	3733.15
450.65	3662.94
450.83	3609.11
451.02	3735.50
451.20	3770.60
451.39	3730.81
451.57	3770.60
451.76	3723.79
451.94	3801.03
452.13	3908.69
452.31	3758.90
452.49	3803.37
452.68	3843.16
452.86	3859.54
453.05	3892.31
453.23	3829.12
453.42	3829.12
453.60	3784.65
453.78	3934.44
453.97	3829.12
454.15	3896.99
454.34	3840.82
454.52	4093.60
454.70	3983.59
454.89	4025.72
455.07	3889.97
455.26	3974.23
455.44	4135.73
455.62	4128.70
455.81	4074.87
455.99	4081.89
456.17	4131.05
456.36	4140.41
456.54	4245.73
456.73	4236.37
456.91	4264.46
457.09	4241.05
457.28	4376.80
457.46	4294.88
457.64	4273.82
457.83	4367.44
458.01	4227.01
458.19	4409.57
458.38	4407.23
458.56	4327.65
458.74	4479.79
458.93	4533.62
459.11	4386.16
459.29	4376.80
459.48	4545.32
459.66	4636.60
459.84	4514.89
460.03	4559.36
460.21	4734.90
460.39	4456.38
460.57	4458.72
460.76	4376.80
460.94	4688.09
461.12	4557.02
461.31	4641.28
461.49	4601.49
461.67	4603.83
461.85	4755.97
462.04	4606.17
462.22	4781.71
462.40	4873.00
462.59	4655.33
462.77	4697.46
462.95	4718.52
463.13	4638.94
463.32	4840.23
463.50	4823.84
463.68	4891.72
463.86	4889.38
464.05	4741.93
464.23	4896.40
464.41	4936.19
464.59	4774.69
464.78	4851.93
464.96	4877.68
465.14	4887.04
465.32	4873.00
465.50	4968.96
465.69	5219.39
465.87	4837.89
466.05	4816.82
466.23	4985.34
466.41	5090.67
466.60	5259.18
466.78	4975.98
466.96	5062.58
467.14	5008.75
467.32	5018.11
467.51	5263.86
467.69	4997.04
467.87	5142.16
468.05	5006.41
468.23	5064.92
468.41	5256.84
468.60	5130.45
468.78	5273.23
468.96	5263.86
469.14	5167.90
469.32	5151.52
469.50	5184.29
469.69	5322.38
469.87	5359.83
470.05	5469.83
470.23	5488.56
470.41	5364.51
470.59	5657.07
470.77	5399.62
470.95	5439.40
471.14	5453.45
471.32	5439.40
471.50	5675.80
471.68	5434.72
471.86	5530.69
472.04	5617.29
472.22	5846.66
472.40	5640.69
472.58	5736.65
472.77	5706.23
472.95	5893.47
473.13	6040.92
473.31	5734.31
473.49	5949.64
473.67	5902.83
473.85	5998.79
474.03	5991.77
474.21	5966.03
474.39	6066.67
474.57	6057.31
474.75	6043.26
474.93	6143.91
475.12	6232.85
475.30	6115.82
475.48	6181.35
475.66	6195.40
475.84	6054.97
476.02	6377.96
476.20	6452.86
476.38	6546.48
476.56	6623.72
476.74	6612.01
476.92	6338.17
477.10	6527.75
477.28	6705.63
477.46	6614.35
477.64	6630.74
477.82	6822.66
478.00	7021.61
478.18	6918.62
478.36	6953.73
478.54	7019.27
478.72	7040.33
478.90	7194.81
479.08	7138.63
479.26	7129.27
479.44	7140.97
479.62	7225.23
479.80	7288.43
479.98	7314.17
480.16	7438.22
480.34	7454.61
480.52	7508.44
480.70	7665.25
480.88	7573.97
481.06	7644.19
481.24	7772.92
481.41	7716.75
481.59	7896.97
481.77	8042.08
481.95	8056.12
482.13	8119.32
482.31	8035.06
482.49	8009.31
482.67	8339.33
482.85	8332.31
483.03	8255.07
483.21	8636.58
483.39	8383.80
483.57	8650.62
483.74	8533.59
483.92	8791.05
484.10	8634.24
484.28	8819.14
484.46	8903.40
484.64	9207.67
484.82	8990.00
485.00	9092.98
485.18	9298.95
485.35	9432.36
485.53	9214.69
485.71	9118.73
485.89	9565.77
486.07	9455.76
486.25	9413.63
486.43	9781.10
486.61	9827.91
486.78	9895.78
486.96	9722.59
487.14	10193.03
487.32	10178.99
487.50	10118.14
487.68	10010.47
487.85	10345.17
488.03	10289.00
488.21	10677.52
488.39	10450.49
488.57	10534.75
488.75	10604.97
488.92	10700.93
489.10	10883.49
489.28	10817.96
489.46	11030.94
489.64	11253.30
489.81	11101.16
489.99	11440.54
490.17	11510.75
490.35	11283.72
490.53	11382.03
490.70	11564.59
490.88	11634.80
491.06	11679.27
491.24	11719.06
491.41	11833.75
491.59	11992.90
491.77	11805.66
491.95	11967.16
492.13	12084.19
492.30	12149.72
492.48	12152.06
492.66	12119.29
492.84	12290.15
493.01	12517.18
493.19	12554.63
493.37	12847.20
493.54	12610.81
493.72	12723.15
493.90	12898.69
494.08	12947.84
494.25	12858.90
494.43	13111.68
494.61	13298.92
494.79	13135.09
494.96	13291.90
495.14	13509.57
495.32	13635.96
495.49	13448.72
495.67	13509.57
495.85	13642.98
496.02	13664.05
496.20	13832.57
496.38	14094.71
496.55	13804.48
496.73	14209.39
496.91	14115.77
497.09	14415.36
497.26	14403.66
497.44	14368.55
497.62	14218.75
497.79	14595.58
497.97	14513.66
498.14	14925.60
498.32	14628.35
498.50	14738.35
498.67	15000.49
498.85	15016.88
499.03	14878.79
499.20	15178.37
499.38	15171.35
499.56	15419.45
499.73	15089.43
499.91	15337.53
500.08	15274.34
500.26	14759.42
500.44	15056.67
500.61	15426.47
500.79	15405.41
500.97	15548.18
501.14	15866.49
501.32	15639.46
501.49	15655.84
501.67	15925.00
501.84	15906.28
502.02	15859.47
502.20	15728.40
502.37	16542.91
502.55	16173.10
502.72	16292.47
502.90	16074.80
503.07	16056.08
503.25	16219.91
503.43	16561.63
503.60	16458.65
503.78	16547.59
503.95	16365.03
504.13	16662.27
504.30	16601.42
504.48	16664.61
504.65	16622.48
504.83	17011.01
505.01	16723.13
505.18	17238.05
505.36	16893.99
505.53	17008.67
505.71	17160.81
505.88	17097.61
506.06	17081.23
506.23	17039.10
506.41	17359.75
506.58	17380.82
506.76	17167.83
506.93	17610.19
507.11	17422.95
507.28	17429.97
507.46	17738.92
507.63	17668.70
507.81	17687.43
507.98	17621.89
508.16	17701.47
508.33	17951.91
508.50	17862.97
508.68	17879.35
508.85	18080.64
509.03	18101.70
509.20	17956.59
509.38	18532.36
509.55	18120.43
509.73	18354.48
509.90	18258.52
510.08	18415.34
510.25	18558.11
510.42	18389.59
510.60	18712.58
510.77	18546.40
510.95	18515.98
511.12	18408.31
511.30	18546.40
511.47	18628.32
511.64	18658.75
511.82	18855.36
511.99	19190.05
512.17	19143.24
512.34	19194.73
512.51	19014.51
512.69	19405.38
512.86	19314.10
513.04	19241.54
513.21	19524.75
513.38	19426.45
513.56	19459.21
513.73	19115.16
513.90	19276.65
514.08	19477.94
514.25	19578.58
514.43	19653.48
514.60	19578.58
514.77	19934.34
514.95	19800.93
515.12	19585.60
515.29	19690.93
515.47	20058.39
515.64	20184.78
515.81	19852.42
515.99	20154.35
516.16	20229.25
516.33	20067.75
516.51	20372.02
516.68	20271.38
516.85	20201.16
517.03	20257.34
517.20	20582.67
517.37	20411.81
517.54	20643.52
517.72	20624.80
517.89	20299.47
518.06	20500.75
518.24	20336.91
518.41	20526.50
518.58	20833.11
518.75	20638.84
518.93	21029.71
519.10	20898.64
519.27	20741.83
519.45	20936.09
519.62	21083.55
519.79	20713.74
519.96	20964.18
520.14	21039.08
520.31	20908.01
520.48	21186.53
520.65	21252.06
520.83	21441.65
521.00	21294.19
521.17	21404.20
521.34	21591.44
521.52	21551.65
521.69	21771.66
521.86	21645.27
522.03	21706.13
522.20	21530.59
522.38	21774.00
522.55	21617.19
522.72	21886.35
522.89	21766.98
523.07	22015.08
523.24	21834.86
523.41	22054.87
523.58	21935.50
523.75	22214.02
523.92	21790.39
524.10	22075.93
524.27	22057.21
524.44	22328.71
524.61	22567.45
524.78	22434.03
524.96	22595.53
525.13	22141.47
525.30	22448.08
525.47	22600.21
525.64	22279.56
525.81	22436.38
525.98	22508.93
526.16	22625.96
526.33	22728.94
526.50	23037.89
526.67	22895.12
526.84	22939.59
527.01	22874.06
527.18	22607.23
527.36	22649.36
527.53	23007.47
527.70	23012.15
527.87	23339.82
528.04	22874.06
528.21	23246.20
528.38	23077.68
528.55	23363.23
528.72	23016.83
528.89	23372.59
529.07	23494.30
529.24	23454.51
529.41	23293.01
529.58	23222.80
529.75	23337.48
529.92	23414.72
530.09	23330.46
530.26	24034.96
530.43	23403.02
530.60	23840.70
530.77	23473.23
530.94	23873.46
531.11	23716.65
531.28	23484.94
531.46	23824.31
531.63	23576.22
531.80	23737.71
531.97	24063.05
532.14	23878.15
532.31	23772.82
532.48	23934.32
532.65	24133.26
532.82	23714.31
532.99	24245.61
533.16	24212.84
533.33	24273.70
533.50	24327.53
533.67	24322.85
533.84	23992.83
534.01	24442.21
534.18	24231.57
534.35	24570.94
534.52	24404.77
534.69	24556.90
534.86	24489.03
535.03	24400.08
535.20	24238.59
535.37	24809.68
535.54	24922.02
535.71	24210.50
535.88	24397.74
536.05	24844.79
536.22	24929.05
536.38	24694.99
536.55	24922.02
536.72	24929.05
536.89	24849.47
537.06	25041.39
537.23	25017.99
537.40	24699.67
537.57	24971.18
537.74	25317.57
537.91	25228.63
538.08	25170.12
538.25	24959.47
538.42	25362.04
538.59	25277.79
538.75	25139.69
538.92	25085.86
539.09	25294.17
539.26	25380.77
539.43	25376.09
539.60	25401.83
539.77	25102.25
539.94	25689.72
540.11	25343.32
540.28	25549.29
540.44	25207.57
540.61	25607.80
540.78	25603.12
540.95	25703.76
541.12	25708.44
541.29	25659.29
541.46	25720.15
541.62	25909.73
541.79	25535.24
541.96	25418.22
542.13	25900.37
542.30	26033.78
542.47	26022.08
542.63	25783.34
542.80	26162.51
542.97	26408.26
543.14	26265.49
543.31	26345.07
543.48	26242.09
543.64	26434.01
543.81	26487.84
543.98	26480.82
544.15	26490.18
544.32	26735.94
544.48	26749.98
544.65	26309.96
544.82	26183.57
544.99	26518.27
545.16	26352.09
545.32	26497.20
545.49	26813.18
545.66	26565.08
545.83	26806.16
546.00	27164.26
546.16	26719.56
546.33	26429.33
546.50	26534.65
546.67	26710.19
546.83	26078.25
547.00	26738.28
547.17	26768.71
547.34	26881.05
547.50	27063.61
547.67	26946.59
547.84	26684.45
548.00	27126.81
548.17	26977.01
548.34	27182.98
548.51	27391.29
548.67	27381.93
548.84	27098.72
549.01	27164.26
549.18	27143.19
549.34	27136.17
549.51	27012.12
549.68	27117.45
549.84	27206.39
550.01	27236.81
550.18	27541.08
550.34	27452.14
550.51	27410.01
550.68	27475.55
550.84	27601.94
551.01	27555.13
551.18	27641.73
551.34	27517.68
551.51	27271.92
551.68	27381.93
551.84	27796.20
552.01	27857.06
552.18	27552.79
552.34	27234.47
552.51	27927.27
552.68	27360.86
552.84	27868.76
553.01	27807.90
553.18	27957.70
553.34	27695.56
553.51	27466.19
553.67	27871.10
553.84	27662.79
554.01	28123.88
554.17	28287.71
554.34	27962.38
554.51	27960.04
554.67	28011.53
554.84	27964.72
555.00	28046.64
555.17	27840.67
555.33	27941.32
555.50	27782.16
555.67	27985.79
555.83	28034.94
556.00	28212.82
556.16	28404.74
556.33	28245.58
556.50	28648.16
556.66	28196.43
556.83	28098.13
556.99	28599.01
557.16	28496.02
557.32	28517.09
557.49	28290.06
557.65	27924.93
557.82	28512.41
557.98	28123.88
558.15	28109.83
558.32	28322.82
558.48	28156.64
558.65	28823.70
558.81	28531.13
558.98	28589.64
559.14	28271.33
559.31	28233.88
559.47	28364.95
559.64	28531.13
559.80	28526.45
559.97	28589.64
560.13	28685.61
560.30	28479.64
560.46	28449.21
560.63	28425.81
560.79	28400.06
560.96	28694.97
561.12	28678.58
561.29	28369.63
561.45	28624.75
561.61	28769.86
561.78	28599.01
561.94	28610.71
562.11	28783.91
562.27	28474.96
562.44	28940.72
562.60	28428.15
562.77	29048.39
562.93	28498.36
563.10	29106.90
563.26	28620.07
563.42	28879.87
563.59	29237.97
563.75	28903.28
563.92	28987.53
564.08	28823.70
564.24	29167.76
564.41	28844.76
564.57	28788.59
564.74	28954.77
564.90	29376.06
565.07	29043.71
565.23	29003.92
565.39	29144.35
565.56	29413.51
565.72	29006.26
565.88	28957.11
566.05	29123.29
566.21	28889.23
566.38	29153.71
566.54	29242.65
566.70	29181.80
566.87	29268.40
567.03	29046.05
567.19	29324.57
567.36	28938.38
567.52	29118.60
567.68	29539.90
567.85	28943.06
568.01	29261.38
568.17	29434.58
568.34	29270.74
568.50	29376.06
568.66	28978.17
568.83	29479.05
568.99	28968.81
569.15	29116.26
569.32	28973.49
569.48	28966.47
569.64	29369.04
569.81	29022.64
569.97	29120.95
570.13	29558.63
570.30	29001.58
570.46	29340.96
570.62	29624.16
570.78	28961.79
570.95	29291.80
571.11	29329.25
571.27	29259.04
571.43	29291.80
571.60	29488.41
571.76	29507.13
571.92	28926.68
572.09	29317.55
572.25	29603.10
572.41	29521.18
572.57	29249.67
572.74	29450.96
572.90	29514.16
573.06	29675.65
573.22	29556.28
573.38	29333.93
573.55	29481.39
573.71	29558.63
573.87	29450.96
574.03	29558.63
574.20	29294.14
574.36	29252.02
574.52	29469.69
574.68	29542.24
574.84	29699.06
575.01	29535.22
575.17	29579.69
575.33	28900.94
575.49	29692.04
575.65	29820.77
575.82	29692.04
575.98	29123.29
576.14	29537.56
576.30	29450.96
576.46	29312.87
576.62	29553.94
576.79	29207.55
576.95	29488.41
577.11	29605.44
577.27	29780.98
577.43	29537.56
577.59	29670.97
577.75	29434.58
577.92	29200.52
578.08	29830.13
578.24	29200.52
578.40	29680.33
578.56	29755.23
578.72	29591.39
578.88	29846.51
579.04	29834.81
579.21	29642.88
579.37	29514.16
579.53	29420.53
579.69	29584.37
579.85	29575.01
580.01	30073.54
580.17	29493.09
580.33	29890.98
580.49	29502.45
580.65	29848.85
580.82	29759.91
580.98	29844.17
581.14	29656.93
581.30	30000.99
581.46	29883.96
581.62	29818.42
581.78	29708.42
581.94	29970.56
582.10	29537.56
582.26	29935.45
582.42	29563.31
582.58	29778.64
582.74	29841.83
582.90	29844.17
583.06	29951.84
583.22	30008.01
583.38	29326.91
583.54	29551.60
583.70	29710.76
583.86	29710.76
584.02	29329.25
584.18	29961.20
584.34	29514.16
584.50	30003.33
584.66	29872.26
584.82	29762.25
584.98	29867.58
585.14	29535.22
585.30	29750.55
585.46	29509.47
585.62	29717.78
585.78	29570.33
585.94	29656.93
586.10	30195.25
586.26	29584.37
586.42	30061.84
586.58	29914.39
586.74	29848.85
586.90	29682.67
587.06	30040.78
587.22	29947.15
587.38	29474.37
587.54	30167.16
587.70	30066.52
587.86	29839.49
588.02	29958.86
588.18	30146.10
588.34	30120.35
588.49	29795.02
588.65	29844.17
588.81	29860.55
588.97	29874.60
589.13	29619.48
589.29	29816.08
589.45	30125.04
589.61	30178.87
589.77	30211.64
589.93	30075.88
590.08	30356.75
590.24	30649.32
590.40	30188.23
590.56	30237.38
590.72	29898.00
590.88	29921.41
591.04	30319.30
591.20	30405.90
591.35	30548.67
591.51	30817.83
591.67	30504.20
591.83	30431.65
591.99	30644.63
592.15	29961.20
592.31	30256.11
592.46	30073.54
592.62	29986.94
592.78	30155.46
592.94	30087.59
593.10	30082.91
593.26	30597.82
593.41	30328.66
593.57	30164.82
593.73	29963.54
593.89	30225.68
594.05	30408.24
594.20	30101.63
594.36	30153.12
594.52	29991.62
594.68	29951.84
594.84	30012.69
594.99	30291.21
595.15	30478.46
595.31	30501.86
595.47	30164.82
595.62	30527.61
595.78	30036.09
595.94	30195.25
596.10	30387.18
596.25	30302.92
596.41	29993.97
596.57	30047.80
596.73	29965.88
596.88	30558.03
597.04	30497.18
597.20	30164.82
597.36	30698.47
597.51	30569.74
597.67	30494.84
597.83	30221.00
597.99	30218.66
598.14	30389.52
598.30	30235.04
598.46	30312.28
598.61	30555.69
598.77	29919.07
598.93	30277.17
599.09	30455.05
599.24	30466.75
599.40	30363.77
599.56	30616.55
599.71	30787.41
599.87	30551.01
600.03	30419.94
600.18	30132.06
600.34	30099.29
600.50	30373.13
600.65	30139.08
600.81	30658.68
600.97	30609.53
601.12	30345.05
601.28	30909.11
601.44	30448.03
601.59	30202.27
601.75	30377.81
601.91	30218.66
602.06	30445.69
602.22	30403.56
602.37	30036.09
602.53	30450.37
602.69	30735.92
602.84	30370.79
603.00	30466.75
603.16	30719.53
603.31	30211.64
603.47	30455.05
603.62	30480.80
603.78	30160.14
603.94	30167.16
604.09	30195.25
604.25	30094.61
604.40	30258.45
604.56	30403.56
604.71	30272.49
604.87	30511.22
605.03	30412.92
605.18	30216.32
605.34	30506.54
605.49	29970.56
605.65	30150.78
605.80	30092.27
605.96	30218.66
606.12	30244.40
606.27	30391.86
606.43	30010.35
606.58	30295.89
606.74	30309.94
606.89	30206.95
607.05	30492.50
607.20	30391.86
607.36	30466.75
607.51	30096.95
607.67	30328.66
607.82	30249.08
607.98	29844.17
608.13	30384.83
608.29	30232.70
608.44	30225.68
608.60	30651.66
608.75	30211.64
608.91	30401.22
609.06	29986.94
609.22	30586.12
609.37	30209.29
609.53	29811.40
609.68	30075.88
609.84	29727.14
609.99	30253.76
610.15	30265.47
610.30	30223.34
610.46	29773.95
610.61	30181.21
610.76	30174.19
610.92	30075.88
611.07	30087.59
611.23	29923.75
611.38	29661.61
611.54	30347.39
611.69	29947.15
611.84	29579.69
612.00	29699.06
612.15	29949.50
612.31	30188.23
612.46	30272.49
612.62	30096.95
612.77	29687.36
612.92	30263.13
613.08	29668.63
613.23	29879.28
613.39	29865.24
613.54	29930.77
613.69	29773.95
613.85	29869.92
614.00	29890.98
614.15	29729.48
614.31	29926.09
614.46	29865.24
614.62	29762.25
614.77	29916.73
614.92	29727.14
615.08	29640.54
615.23	29816.08
615.38	29621.82
615.54	29652.25
615.69	29448.62
615.84	29563.31
616.00	29652.25
616.15	29635.86
616.30	29867.58
616.46	29771.61
616.61	29474.37
616.76	29848.85
616.92	29488.41
617.07	29926.09
617.22	29312.87
617.37	29975.24
617.53	29692.04
617.68	29722.46
617.83	29713.10
617.99	29453.30
618.14	29656.93
618.29	29539.90
618.45	29465.00
618.60	29579.69
618.75	29378.40
618.90	29345.64
619.06	29792.68
619.21	29408.83
619.36	29324.57
619.51	29312.87
619.67	29160.73
619.82	28842.42
619.97	29167.76
620.12	29385.43
620.28	29039.03
620.43	28870.51
620.58	29605.44
620.73	29668.63
620.89	29127.97
621.04	29687.36
621.19	29385.43
621.34	29408.83
621.49	29223.93
621.65	28910.30
621.80	29413.51
621.95	28922.00
622.10	29017.96
622.25	29104.56
622.41	28465.60
622.56	29240.31
622.71	29127.97
622.86	28903.28
623.01	28847.10
623.16	29338.62
623.32	28882.21
623.47	28842.42
623.62	28657.52
623.77	28943.06
623.92	29102.22
624.07	28854.12
624.23	28690.29
624.38	28980.51
624.53	28725.39
624.68	28755.82
624.83	28826.04
624.98	28933.70
625.13	28877.53
625.29	28538.15
625.44	28968.81
625.59	28568.58
625.74	28540.49
625.89	28453.89
626.04	28552.20
626.19	28322.82
626.34	28615.39
626.49	28435.17
626.65	28100.47
626.80	28723.05
626.95	28924.34
627.10	28709.01
627.25	28116.86
627.40	28273.67
627.55	28229.20
627.70	28327.50
627.85	28259.63
628.00	28306.44
628.15	28208.14
628.30	28105.15
628.45	28624.75
628.60	28091.11
628.76	28393.04
628.91	28374.31
629.06	28322.82
629.21	28259.63
629.36	28400.06
629.51	28290.06
629.66	28346.23
629.81	28095.79
629.96	28058.34
630.11	28208.14
630.26	27646.41
630.41	28004.51
630.56	27880.46
630.71	28226.86
630.86	28177.71
631.01	28250.27
631.16	28067.70
631.31	27878.12
631.46	27887.48
631.61	27882.80
631.76	28006.85
631.91	27889.82
632.06	27831.31
632.21	27714.28
632.36	27908.55
632.51	27248.52
632.66	27674.49
632.81	27718.96
632.96	27854.72
633.10	27611.30
633.25	27763.43
633.40	27524.70
633.55	27805.56
633.70	27730.67
633.85	27431.08
634.00	27197.02
634.15	27737.69
634.30	27377.25
634.45	27559.81
634.60	27435.76
634.75	27688.54
634.90	27594.92
635.05	27728.33
635.19	27520.02
635.34	28018.55
635.49	27812.59
635.64	27316.39
635.79	27491.93
635.94	27821.95
636.09	26995.74
636.24	27204.05
636.39	27288.31
636.53	27508.32
636.68	27065.96
636.83	26925.52
636.98	27576.19
637.13	27412.35
637.28	27379.59
637.43	27363.20
637.57	27386.61
637.72	26960.63
637.87	27227.45
638.02	27534.06
638.17	27154.90
638.32	27260.22
638.46	27438.10
638.61	26778.07
638.76	27044.89
638.91	26843.60
639.06	26857.65
639.20	26883.39
639.35	27204.05
639.50	26731.26
639.65	27274.26
639.80	27271.92
639.94	27028.51
640.09	27112.77
640.24	27035.53
640.39	27204.05
640.54	26679.77
640.68	26293.58
640.83	26906.80
640.98	26403.58
641.13	26448.05
641.27	26787.43
641.42	26850.63
641.57	26834.24
641.72	26969.99
641.86	26642.32
642.01	26548.70
642.16	26714.87
642.31	26628.27
642.45	26504.23
642.60	26249.11
642.75	26492.52
642.90	26654.02
643.04	26553.38
643.19	26677.43
643.34	26586.15
643.48	26443.37
643.63	26401.24
643.78	26649.34
643.93	26354.43
644.07	26513.59
644.22	26621.25
644.37	26562.74
644.51	26361.45
644.66	26181.23
644.81	26295.92
644.95	26455.08
645.10	26525.29
645.25	26132.08
645.39	26529.97
645.54	26602.53
645.69	26253.79
645.83	26544.02
645.98	26118.04
646.13	26324.01
646.27	26370.82
646.42	26544.02
646.57	26373.16
646.71	26139.10
646.86	26260.81
647.00	26279.54
647.15	25834.83
647.30	26263.15
647.44	26228.04
647.59	26429.33
647.74	25605.46
647.88	26127.40
648.03	26197.62
648.17	26572.10
648.32	26377.84
648.47	26349.75
648.61	26515.93
648.76	26387.20
648.90	26274.85
649.05	26092.29
649.20	26022.08
649.34	26040.80
649.49	25715.47
649.63	25514.18
649.78	25731.85
649.92	25551.63
650.07	25788.02
650.21	26012.71
650.36	25848.88
650.51	25745.89
650.65	25984.63
650.80	25881.64
650.94	26064.21
651.09	25621.84
651.23	25579.71
651.38	25472.05
651.52	25582.06
651.67	25729.51
651.81	25879.30
651.96	25338.64
652.10	25818.45
652.25	25532.90
652.39	25818.45
652.54	25406.52
652.68	25546.95
652.83	25474.39
652.97	25663.97
653.12	25504.82
653.26	25759.94
653.41	25432.26
653.55	25282.47
653.70	25378.43
653.84	25420.56
653.99	25411.20
654.13	25542.27
654.27	25584.40
654.42	25209.91
654.56	25537.59
654.71	25221.61
654.85	25282.47
655.00	25661.63
655.14	25539.93
655.29	25280.13
655.43	25188.85
655.57	25106.93
655.72	24994.58
655.86	25170.12
656.01	25404.17
656.15	25113.95
656.30	25247.36
656.44	25137.35
656.58	24896.28
656.73	25259.06
656.87	24723.08
657.01	25149.06
657.16	24971.18
657.30	25186.50
657.45	24886.92
657.59	25142.03
657.73	24812.02
657.88	25158.42
658.02	25017.99
658.16	24638.82
658.31	24774.57
658.45	24680.95
658.60	24884.58
658.74	24844.79
658.88	24912.66
659.03	24683.29
659.17	24917.34
659.31	24676.27
659.46	24697.33
659.60	24746.48
659.74	24659.88
659.89	24517.11
660.03	24723.08
660.17	24493.71
660.32	24907.98
660.46	24360.30
660.60	24278.38
660.74	24081.77
660.89	24329.87
661.03	24603.71
661.17	24355.61
661.32	24247.95
661.46	24526.47
661.60	24238.59
661.74	24765.21
661.89	24512.43
662.03	24273.70
662.17	24018.58
662.31	24023.26
662.46	24449.24
662.60	24173.05
662.74	24226.89
662.88	23726.01
663.03	23833.68
663.17	23955.38
663.31	23747.08
663.45	23770.48
663.60	23810.27
663.74	23410.04
663.88	23569.19
664.02	23534.09
664.17	23988.15
664.31	23601.96
664.45	23557.49
664.59	23674.52
664.73	23812.61
664.88	23405.36
665.02	23419.40
665.16	23239.18
665.30	23433.44
665.44	23433.44
665.59	23115.13
665.73	23185.35
665.87	22979.38
666.01	23358.55
666.15	23431.10
666.29	23185.35
666.44	23063.64
666.58	23080.02
666.72	23103.43
666.86	23080.02
667.00	23276.63
667.14	23187.69
667.28	22941.93
667.43	22621.28
667.57	23044.91
667.71	22801.50
667.85	22904.48
667.99	22541.70
668.13	22993.42
668.27	23014.49
668.41	22843.63
668.56	22548.72
668.70	22721.92
668.84	22848.31
668.98	22714.90
669.12	22696.17
669.26	22551.06
669.40	22677.45
669.54	22630.64
669.68	22677.45
669.82	22314.67
669.96	22190.62
670.10	22143.81
670.25	22225.73
670.39	22230.41
670.53	22104.02
670.67	22178.92
670.81	22146.15
670.95	22012.74
671.09	22387.22
671.23	22300.62
671.37	22019.76
671.51	22207.00
671.65	21977.63
671.79	22239.77
671.93	22019.76
672.07	21977.63
672.21	21745.92
672.35	21551.65
672.49	21603.14
672.63	21619.53
672.77	21661.66
672.91	21532.93
673.05	21561.02
673.19	21652.30
673.33	21481.44
673.47	21198.23
673.61	21502.50
673.75	21317.60
673.89	21392.50
674.03	21460.37
674.17	21256.75
674.31	21106.95
674.45	21223.98
674.59	21163.12
674.73	21247.38
674.87	21025.03
675.01	20994.61
675.15	20680.97
675.29	20851.83
675.43	20524.16
675.56	20685.65
675.70	20788.64
675.84	20697.36
675.98	20332.23
676.12	20725.44
676.26	20620.12
676.40	20772.25
676.54	20400.11
676.68	20783.96
676.82	20271.38
676.96	20056.05
677.10	20245.63
677.23	20013.92
677.37	20219.89
677.51	19700.29
677.65	19812.63
677.79	19831.36
677.93	19854.76
678.07	19864.13
678.21	19908.60
678.34	19435.81
678.48	19765.82
678.62	19508.37
678.76	19616.03
678.90	19482.62
679.04	19297.72
679.18	19562.20
679.31	19061.32
679.45	19293.04
679.59	19080.05
679.73	19204.10
679.87	18845.99
680.00	19019.19
680.14	19026.21
680.28	18813.23
680.42	18927.91
680.56	18860.04
680.70	18920.89
680.83	18848.33
680.97	18902.17
681.11	18609.60
681.25	18761.73
681.39	18583.85
681.52	18380.23
681.66	18410.65
681.80	18253.84
681.94	18431.72
682.07	18459.81
682.21	18218.73
682.35	18202.35
682.49	17902.76
682.62	18068.94
682.76	17912.12
682.90	17921.48
683.04	17703.81
683.17	17762.33
683.31	17769.35
683.45	18162.56
683.59	17888.71
683.72	17619.55
683.86	17411.25
684.00	17427.63
684.13	17659.34
684.27	17322.30
684.41	17226.34
684.55	17139.74
684.68	17130.38
684.82	17123.36
684.96	16926.75
685.09	17064.85
685.23	16816.75
685.37	17011.01
685.50	17013.35
685.64	17008.67
685.78	16961.86
685.91	16704.40
686.05	16725.47
686.19	17011.01
686.32	16664.61
686.46	16468.01
686.60	16545.25
686.73	16430.56
686.87	16285.45
687.01	16287.79
687.14	16264.38
687.28	16093.52
687.42	16168.42
687.55	16187.14
687.69	15894.58
687.82	16046.71
687.96	15962.45
688.10	16081.82
688.23	15896.92
688.37	16049.05
688.50	15796.28
688.64	15903.94
688.78	15829.04
688.91	15426.47
689.05	15604.35
689.18	15728.40
689.32	15157.31
689.46	15510.73
689.59	15232.21
689.73	15379.66
689.86	15269.66
690.00	15110.50
690.13	15112.84
690.27	14909.21
690.41	15218.16
690.54	14965.39
690.68	14806.23
690.81	14820.27
690.95	15080.07
691.08	14817.93
691.22	14628.35
691.35	14726.65
691.49	15019.22
691.62	14848.36
691.76	14593.24
691.89	14438.76
692.03	14389.61
692.16	14518.34
692.30	14207.05
692.43	14190.67
692.57	14188.33
692.70	14050.24
692.84	13970.66
692.97	13781.07
693.11	14181.31
693.24	13846.61
693.38	14178.97
693.51	13792.78
693.65	13750.65
693.78	13837.25
693.92	13862.99
694.05	13715.54
694.19	13572.77
694.32	13338.71
694.45	13219.35
694.59	13308.29
694.72	13319.99
694.86	13294.24
694.99	13097.64
695.13	13184.24
695.26	13158.49
695.39	13006.36
695.53	12978.27
695.66	12954.87
695.80	13008.70
695.93	13092.96
696.07	12940.82
696.20	13174.88
696.33	12629.53
696.47	12938.48
696.60	12533.57
696.73	12769.96
696.87	12554.63
697.00	12617.83
697.14	12507.82
697.27	12255.04
697.40	12627.19
697.54	12432.93
697.67	12343.99
697.80	12217.60
697.94	12028.01
698.07	12329.94
698.21	12020.99
698.34	11948.43
698.47	12203.55
698.61	11576.29
698.74	11847.79
698.87	12011.63
699.01	11836.09
699.14	11964.82
699.27	11740.13
699.40	11644.17
699.54	11508.41
699.67	11595.01
699.80	11538.84
699.94	11447.56
700.07	11398.41
700.20	11351.60
700.34	11302.45
700.47	11286.06
700.60	11304.79
700.73	11414.79
700.87	11105.84
701.00	11115.20
701.13	11164.36
701.26	11103.50
701.40	10862.43
701.53	11187.76
701.66	10953.71
701.79	10803.91
701.93	10623.69
702.06	10654.12
702.19	10586.24
702.32	10619.01
702.46	10394.32
702.59	10583.90
702.72	10197.71
702.85	10272.61
702.99	10331.12
703.12	10251.55
703.25	10097.07
703.38	10394.32
703.51	10157.92
703.65	10225.80
703.78	10202.40
703.91	10277.29
704.04	10066.64
704.17	9982.38
704.31	9930.89
704.44	9987.07
704.57	9865.36
704.70	9762.37
704.83	9729.61
704.96	9675.77
705.10	9678.12
705.23	9582.15
>>>>>End Processed Spectral Data<<<<<
