SpectraSuite Data File
++++++++++++++++++++++++++++++++++++
Date: Fri Oct 18 13:58:15 GMT-05:00 2013
User: bianchi
Dark Spectrum Present: No
Reference Spectrum Present: No
Number of Sampled Component Spectra: 1
Spectrometers: USB2+H05261
Integration Time (usec): 50000 (USB2+H05261)
Spectra Averaged: 1 (USB2+H05261)
Boxcar Smoothing: 0 (USB2+H05261)
Correct for Electrical Dark: No (USB2+H05261)
Strobe/Lamp Enabled: No (USB2+H05261)
Correct for Detector Non-linearity: No (USB2+H05261)
Correct for Stray Light: No (USB2+H05261)
Number of Pixels in Processed Spectrum: 2048
>>>>>Begin Processed Spectral Data<<<<<
365.73	0.00
365.92	0.00
366.12	0.00
366.32	0.00
366.52	0.00
366.72	0.00
366.91	0.00
367.11	0.00
367.31	0.00
367.51	0.00
367.70	0.00
367.90	0.00
368.10	0.00
368.30	0.00
368.49	0.00
368.69	0.00
368.89	0.00
369.09	0.00
369.28	0.00
369.48	0.00
369.68	0.00
369.87	0.00
370.07	0.00
370.27	0.00
370.47	4.68
370.66	77.24
370.86	98.30
371.06	124.05
371.25	175.54
371.45	191.92
371.65	168.52
371.84	121.71
372.04	138.09
372.24	147.45
372.44	212.99
372.63	161.50
372.83	210.65
373.03	194.26
373.22	154.48
373.42	194.26
373.62	201.29
373.81	170.86
374.01	227.03
374.21	191.92
374.40	196.60
374.60	194.26
374.79	255.12
374.99	182.56
375.19	271.50
375.38	236.39
375.58	220.01
375.78	330.02
375.97	243.42
376.17	306.61
376.37	283.20
376.56	257.46
376.76	278.52
376.95	259.80
377.15	250.44
377.35	250.44
377.54	269.16
377.74	301.93
377.93	308.95
378.13	285.55
378.33	315.97
378.52	308.95
378.72	308.95
378.91	297.25
379.11	269.16
379.31	330.02
379.50	255.12
379.70	348.74
379.89	280.86
380.09	315.97
380.28	257.46
380.48	322.99
380.68	283.20
380.87	257.46
381.07	332.36
381.26	344.06
381.46	245.76
381.65	315.97
381.85	304.27
382.04	299.59
382.24	339.38
382.43	367.46
382.63	320.65
382.83	304.27
383.02	318.31
383.22	353.42
383.41	320.65
383.61	402.57
383.80	280.86
384.00	280.86
384.19	332.36
384.39	337.04
384.58	339.38
384.78	484.49
384.97	404.91
385.17	395.55
385.36	290.23
385.56	449.38
385.75	393.21
385.95	322.99
386.14	388.53
386.34	449.38
386.53	402.57
386.72	437.68
386.92	428.32
387.11	407.25
387.31	430.66
387.50	414.27
387.70	444.70
387.89	362.78
388.09	468.11
388.28	449.38
388.48	437.68
388.67	397.89
388.86	458.74
389.06	475.13
389.25	458.74
389.45	440.02
389.64	463.43
389.84	400.23
390.03	461.09
390.22	400.23
390.42	458.74
390.61	437.68
390.81	461.09
391.00	528.96
391.19	482.15
391.39	482.15
391.58	512.58
391.78	505.56
391.97	566.41
392.16	545.34
392.36	571.09
392.55	543.00
392.75	587.47
392.94	514.92
393.13	547.69
393.33	521.94
393.52	531.30
393.71	582.79
393.91	559.39
394.10	564.07
394.29	585.13
394.49	538.32
394.68	599.18
394.88	599.18
395.07	575.77
395.26	585.13
395.46	575.77
395.65	638.97
395.84	568.75
396.04	655.35
396.23	580.45
396.42	599.18
396.62	601.52
396.81	713.86
397.00	592.16
397.19	638.97
397.39	613.22
397.58	690.46
397.77	585.13
397.97	692.80
398.16	753.65
398.35	683.44
398.55	603.86
398.74	660.03
398.93	706.84
399.12	770.04
399.32	669.39
399.51	730.25
399.70	795.78
399.90	683.44
400.09	744.29
400.28	711.52
400.47	807.48
400.67	767.70
400.86	774.72
401.05	774.72
401.24	784.08
401.44	805.14
401.63	770.04
401.82	800.46
402.01	781.74
402.21	772.38
402.40	873.02
402.59	884.72
402.78	814.51
402.97	830.89
403.17	894.08
403.36	812.17
403.55	926.85
403.74	933.87
403.93	866.00
404.13	861.32
404.32	903.45
404.51	908.13
404.70	1034.52
404.89	915.15
405.09	1013.45
405.28	924.51
405.47	898.77
405.66	947.92
405.85	1043.88
406.05	994.73
406.24	1071.97
406.43	903.45
406.62	1015.79
406.81	1043.88
407.00	964.30
407.20	931.53
407.39	1050.90
407.58	966.64
407.77	1074.31
407.96	1111.75
408.15	1121.12
408.34	1041.54
408.54	1048.56
408.73	1114.10
408.92	1128.14
409.11	1139.84
409.30	1074.31
409.49	1146.86
409.68	1174.95
409.87	1153.88
410.07	1172.61
410.26	1128.14
410.45	1186.65
410.64	1160.91
410.83	1076.65
411.02	1235.80
411.21	1132.82
411.40	1296.66
411.59	1308.36
411.78	1362.19
411.98	1259.21
412.17	1181.97
412.36	1284.95
412.55	1343.47
412.74	1338.79
412.93	1327.08
413.12	1291.98
413.31	1472.20
413.50	1345.81
413.69	1371.55
413.88	1404.32
414.07	1493.26
414.26	1458.15
414.45	1490.92
414.64	1416.02
414.83	1444.11
415.02	1441.77
415.22	1544.75
415.41	1516.67
415.60	1568.16
415.79	1554.12
415.98	1612.63
416.17	1535.39
416.36	1561.14
416.55	1519.01
416.74	1577.52
416.93	1621.99
417.12	1652.42
417.31	1680.50
417.50	1685.19
417.69	1778.81
417.88	1671.14
418.07	1739.02
418.26	1736.68
418.45	1706.25
418.64	1827.96
418.83	1844.34
419.02	1732.00
419.21	1694.55
419.39	1806.89
419.58	1734.34
419.77	1809.23
419.96	1863.07
420.15	1863.07
420.34	2015.20
420.53	1914.56
420.72	1846.68
420.91	1867.75
421.10	1980.09
421.29	2017.54
421.48	1802.21
421.67	1888.81
421.86	1872.43
422.05	1884.13
422.24	1830.30
422.43	1970.73
422.61	1996.48
422.80	1982.43
422.99	1881.79
423.18	2031.58
423.37	2148.61
423.56	1970.73
423.75	2118.18
423.94	1998.82
424.13	1757.74
424.32	1860.73
424.50	2033.93
424.69	2139.25
424.88	2101.80
425.07	1982.43
425.26	1952.01
425.45	2071.37
425.64	2026.90
425.83	1923.92
426.01	1933.28
426.20	1959.03
426.39	2047.97
426.58	2008.18
426.77	2132.23
426.96	2069.03
427.15	2132.23
427.33	2059.67
427.52	2050.31
427.71	2083.08
427.90	2176.70
428.09	2113.50
428.28	2179.04
428.46	2230.53
428.65	2221.17
428.84	2099.46
429.03	2204.78
429.22	2127.55
429.40	2267.98
429.59	2111.16
429.78	2223.51
429.97	2216.49
430.16	2204.78
430.34	2237.55
430.53	2319.47
430.72	2331.17
430.91	2342.88
431.10	2328.83
431.28	2513.74
431.47	2356.92
431.66	2352.24
431.85	2366.28
432.03	2457.56
432.22	2457.56
432.41	2303.09
432.60	2396.71
432.79	2480.97
432.97	2483.31
433.16	2385.01
433.35	2363.94
433.54	2602.68
433.72	2420.11
433.91	2495.01
434.10	2569.91
434.28	2497.35
434.47	2492.67
434.66	2567.57
434.85	2572.25
435.03	2539.48
435.22	2502.03
435.41	2693.96
435.59	2654.17
435.78	2567.57
435.97	2597.99
436.16	2642.46
436.34	2654.17
436.53	2677.57
436.72	2803.96
436.90	2752.47
437.09	2717.36
437.28	2717.36
437.46	2532.46
437.65	2773.53
437.84	2750.13
438.02	2773.53
438.21	2825.03
438.40	2712.68
438.58	2665.87
438.77	2869.50
438.96	2787.58
439.14	2883.54
439.33	2855.45
439.52	2897.58
439.70	3014.61
439.89	2942.05
440.08	3045.04
440.26	3133.98
440.45	3068.44
440.63	3089.51
440.82	2965.46
441.01	3138.66
441.19	3073.12
441.38	3260.37
441.57	3192.49
441.75	3183.13
441.94	3323.56
442.12	3290.79
442.31	3400.80
442.50	3405.48
442.68	3262.71
442.87	3272.07
443.05	3197.17
443.24	3384.41
443.43	3407.82
443.61	3229.94
443.80	3478.04
443.98	3316.54
444.17	3342.28
444.35	3421.86
444.54	3421.86
444.73	3461.65
444.91	3400.80
445.10	3435.91
445.28	3417.18
445.47	3405.48
445.65	3503.78
445.84	3321.22
446.02	3456.97
446.21	3480.38
446.39	3419.52
446.58	3365.69
446.77	3445.27
446.95	3456.97
447.14	3403.14
447.32	3501.44
447.51	3300.16
447.69	3440.59
447.88	3559.95
448.06	3520.17
448.25	3473.36
448.43	3410.16
448.62	3456.97
448.80	3571.66
448.99	3487.40
449.17	3566.98
449.36	3604.42
449.54	3641.87
449.73	3665.28
449.91	3714.43
450.10	3754.22
450.28	3875.93
450.46	3684.00
450.65	3707.41
450.83	3880.61
451.02	3777.62
451.20	3684.00
451.39	3665.28
451.57	3674.64
451.76	3777.62
451.94	3719.11
452.13	3779.97
452.31	3847.84
452.49	3763.58
452.68	3904.01
452.86	3904.01
453.05	3875.93
453.23	3929.76
453.42	3775.28
453.60	3733.15
453.78	3824.44
453.97	3843.16
454.15	3915.72
454.34	3815.07
454.52	3948.48
454.70	3941.46
454.89	3999.98
455.07	3918.06
455.26	4063.17
455.44	4058.49
455.62	3969.55
455.81	4053.81
455.99	4117.00
456.17	4145.09
456.36	4095.94
456.54	4138.07
456.73	4175.52
456.91	4311.27
457.09	4290.20
457.28	4283.18
457.46	4201.26
457.64	4255.09
457.83	4308.93
458.01	4236.37
458.19	4180.20
458.38	4257.43
458.56	4592.13
458.74	4451.70
458.93	4327.65
459.11	4227.01
459.29	4360.42
459.48	4482.13
459.66	4489.15
459.84	4311.27
460.03	4428.29
460.21	4540.64
460.39	4393.19
460.57	4636.60
460.76	4587.45
460.94	4655.33
461.12	4702.14
461.31	4587.45
461.49	4657.67
461.67	4465.74
461.85	4755.97
462.04	4697.46
462.22	4877.68
462.40	4655.33
462.59	4702.14
462.77	4819.16
462.95	4723.20
463.13	4734.90
463.32	4767.67
463.50	4730.22
463.68	4786.40
463.86	4741.93
464.05	4702.14
464.23	4826.18
464.41	4828.53
464.59	4741.93
464.78	4908.10
464.96	4760.65
465.14	4922.15
465.32	4837.89
465.50	4837.89
465.69	5006.41
465.87	4816.82
466.05	5008.75
466.23	5064.92
466.41	4809.80
466.60	5181.95
466.78	4905.76
466.96	4971.30
467.14	5050.88
467.32	5032.15
467.51	5289.61
467.69	4910.44
467.87	5039.17
468.05	5198.33
468.23	5217.05
468.41	5062.58
468.60	5146.84
468.78	5083.64
468.96	5226.42
469.14	5165.56
469.32	5394.93
469.50	4997.04
469.69	5263.86
469.87	5507.28
470.05	5420.68
470.23	5465.15
470.41	5408.98
470.59	5338.76
470.77	5322.38
470.95	5563.45
471.14	5420.68
471.32	5488.56
471.50	5554.09
471.68	5434.72
471.86	5488.56
472.04	5755.38
472.22	5614.95
472.40	5495.58
472.58	5729.63
472.77	5713.25
472.95	5736.65
473.13	5944.96
473.31	5776.44
473.49	5605.58
473.67	5729.63
473.85	5912.19
474.03	5865.38
474.21	5846.66
474.39	5998.79
474.57	6076.03
474.75	5963.68
474.93	6071.35
475.12	6087.73
475.30	6314.77
475.48	6085.39
475.66	6111.14
475.84	6209.44
476.02	6324.13
476.20	6176.67
476.38	6424.77
476.56	6415.41
476.74	6452.86
476.92	6429.45
477.10	6377.96
477.28	6609.67
477.46	6651.80
477.64	6710.32
477.82	6853.09
478.00	6984.16
478.18	6871.81
478.36	6878.83
478.54	7040.33
478.72	7012.24
478.90	7145.66
479.08	7295.45
479.26	6981.82
479.44	7140.97
479.62	7295.45
479.80	7265.02
479.98	7225.23
480.16	7501.42
480.34	7365.67
480.52	7349.28
480.70	7496.74
480.88	7499.08
481.06	7461.63
481.24	7384.39
481.41	7740.15
481.59	7819.73
481.77	7941.44
481.95	8025.70
482.13	7974.21
482.31	8009.31
482.49	8212.94
482.67	8168.47
482.85	8259.75
483.03	8496.14
483.21	8393.16
483.39	8411.89
483.57	8599.13
483.74	8578.06
483.92	8662.32
484.10	8559.34
484.28	8798.07
484.46	8933.82
484.64	9071.92
484.82	9046.17
485.00	9139.79
485.18	9090.64
485.35	9437.04
485.53	9231.07
485.71	9430.02
485.89	9486.19
486.07	9233.41
486.25	9610.24
486.43	9638.33
486.61	9694.50
486.78	9837.27
486.96	9834.93
487.14	10087.71
487.32	9907.49
487.50	10193.03
487.68	10022.17
487.85	10305.38
488.03	10382.62
488.21	10359.21
488.39	10501.98
488.57	10525.39
488.75	10572.20
488.92	10796.89
489.10	10850.72
489.28	10785.19
489.46	10766.46
489.64	11082.44
489.81	11150.31
489.99	11213.51
490.17	11407.77
490.35	11454.58
490.53	11538.84
490.70	11587.99
490.88	11309.47
491.06	11836.09
491.24	11349.26
491.41	11623.10
491.59	11719.06
491.77	11971.84
491.95	11964.82
492.13	12100.57
492.30	12236.32
492.48	12308.88
492.66	12276.11
492.84	12407.18
493.01	12657.62
493.19	12472.71
493.37	12617.83
493.54	12512.50
493.72	12739.54
493.90	12650.60
494.08	12826.14
494.25	13050.83
494.43	13121.04
494.61	13231.05
494.79	13109.34
494.96	12905.71
495.14	13462.76
495.32	13392.55
495.49	13584.47
495.67	13490.85
495.85	13713.20
496.02	13816.18
496.20	13970.66
496.38	13666.39
496.55	13823.20
496.73	14071.30
496.91	13872.36
497.09	14197.69
497.26	14260.88
497.44	14061.94
497.62	14331.10
497.79	14361.53
497.97	14361.53
498.14	14520.68
498.32	14586.22
498.50	14794.53
498.67	14979.43
498.85	14951.34
499.03	14869.42
499.20	15140.93
499.38	14934.96
499.56	15147.95
499.73	15047.30
499.91	15178.37
500.08	15286.04
500.26	15026.24
500.44	15372.64
500.61	15330.51
500.79	15442.85
500.97	15215.82
501.14	15754.15
501.32	15693.29
501.49	15522.43
501.67	15690.95
501.84	15597.33
502.02	15845.43
502.20	16020.97
502.37	16252.68
502.55	15899.26
502.72	16205.87
502.90	16046.71
503.07	16107.57
503.25	16439.92
503.43	16205.87
503.60	16423.54
503.78	16517.16
503.95	16348.64
504.13	16664.61
504.30	16755.90
504.48	16510.14
504.65	16393.11
504.83	16636.53
505.01	16730.15
505.18	16795.68
505.36	16641.21
505.53	16643.55
505.71	16402.47
505.88	17050.80
506.06	16886.97
506.23	17329.33
506.41	17156.13
506.58	17310.60
506.76	17296.56
506.93	17444.01
507.11	17666.36
507.28	17422.95
507.46	17472.10
507.63	17422.95
507.81	17743.60
507.98	17378.48
508.16	17731.90
508.33	17582.10
508.50	17731.90
508.68	17654.66
508.85	18047.87
509.03	17853.61
509.20	18148.51
509.38	18122.77
509.55	18429.38
509.73	18490.23
509.90	18328.74
510.08	18111.07
510.25	18092.34
510.42	18452.78
510.60	18349.80
510.77	18328.74
510.95	18541.72
511.12	18647.05
511.30	18829.61
511.47	18731.31
511.64	18602.58
511.82	18892.80
511.99	18679.82
512.17	18958.34
512.34	18834.29
512.51	19241.54
512.69	18904.51
512.86	19037.92
513.04	19241.54
513.21	19208.78
513.38	19386.66
513.56	19363.25
513.73	19243.88
513.90	19353.89
514.08	19489.64
514.25	19342.19
514.43	19538.79
514.60	19910.94
514.77	19763.48
514.95	19974.13
515.12	19417.08
515.29	19452.19
515.47	20049.03
515.64	19922.64
515.81	20166.06
515.99	20056.05
516.16	20173.08
516.33	20280.74
516.51	20355.64
516.68	19962.43
516.85	20154.35
517.03	20182.44
517.20	20231.59
517.37	20362.66
517.54	20393.09
517.72	20409.47
517.89	20308.83
518.06	20638.84
518.24	20631.82
518.41	20343.94
518.58	20624.80
518.75	20713.74
518.93	21135.04
519.10	20863.54
519.27	20947.79
519.45	20744.17
519.62	20725.44
519.79	20872.90
519.96	20898.64
520.14	21043.76
520.31	21034.39
520.48	21006.31
520.65	21212.28
520.83	21245.04
521.00	21294.19
521.17	21113.97
521.34	21184.19
521.52	21266.11
521.69	21523.57
521.86	21401.86
522.03	21415.90
522.20	21802.09
522.38	21640.59
522.55	21584.42
522.72	21654.64
522.89	21825.50
523.07	21989.33
523.24	21706.13
523.41	21977.63
523.58	21986.99
523.75	22164.87
523.92	21729.53
524.10	21916.78
524.27	21921.46
524.44	22008.06
524.61	22246.79
524.78	22136.79
524.96	22328.71
525.13	22408.29
525.30	22492.55
525.47	22469.14
525.64	22581.49
525.81	22621.28
525.98	22628.30
526.16	22534.68
526.33	22218.71
526.50	22829.59
526.67	22675.11
526.84	22735.96
527.01	22513.61
527.18	22537.02
527.36	22831.93
527.53	22934.91
527.70	22937.25
527.87	22988.74
528.04	23171.30
528.21	22574.47
528.38	22970.02
528.55	23225.14
528.72	22995.76
528.89	23274.29
529.07	23023.85
529.24	23016.83
529.41	23424.08
529.58	23594.94
529.75	23344.50
529.92	23159.60
530.09	23328.12
530.26	23580.90
530.43	23332.80
530.60	23267.27
530.77	23410.04
530.94	23791.55
531.11	23204.07
531.28	23536.43
531.46	23384.29
531.63	23508.34
531.80	23709.63
531.97	24044.32
532.14	23740.05
532.31	23840.70
532.48	23730.69
532.65	24095.82
532.82	24079.43
532.99	23887.51
533.16	23887.51
533.33	23990.49
533.50	24407.11
533.67	24130.92
533.84	24011.56
534.01	24250.29
534.18	24425.83
534.35	24332.21
534.52	24229.23
534.69	24407.11
534.86	24259.65
535.03	24243.27
535.20	24699.67
535.37	24629.46
535.54	24491.37
535.71	24376.68
535.88	24599.03
536.05	24184.76
536.22	25015.65
536.38	24865.85
536.55	24788.61
536.72	24748.82
536.89	24713.72
537.06	24697.33
537.23	24692.65
537.40	24737.12
537.57	24844.79
537.74	25057.78
537.91	25062.46
538.08	25139.69
538.25	25200.55
538.42	25034.37
538.59	25135.01
538.75	24982.88
538.92	24863.51
539.09	25193.53
539.26	24790.95
539.43	25057.78
539.60	25308.21
539.77	25214.59
539.94	25516.52
540.11	25305.87
540.28	25282.47
540.44	25378.43
540.61	25355.02
540.78	25282.47
540.95	25448.64
541.12	25596.10
541.29	25523.54
541.46	25450.99
541.62	25472.05
541.79	25462.69
541.96	25549.29
542.13	25825.47
542.30	25507.16
542.47	25937.82
542.63	25928.45
542.80	26209.32
542.97	26143.78
543.14	26094.63
543.31	25881.64
543.48	26169.53
543.64	26497.20
543.81	26209.32
543.98	26424.65
544.15	26195.28
544.32	26562.74
544.48	26354.43
544.65	26375.50
544.82	26480.82
544.99	26024.42
545.16	26459.76
545.32	26445.71
545.49	26637.64
545.66	26888.07
545.83	26817.86
546.00	26731.26
546.16	26302.94
546.33	26600.19
546.50	26541.68
546.67	26892.76
546.83	26340.39
547.00	26478.48
547.17	26742.96
547.34	26972.33
547.50	26859.99
547.67	27110.43
547.84	26752.32
548.00	27339.80
548.17	26909.14
548.34	27122.13
548.51	27292.99
548.67	26941.91
548.84	26962.97
549.01	27110.43
549.18	27072.98
549.34	27168.94
549.51	27000.42
549.68	26859.99
549.84	26906.80
550.01	27501.29
550.18	27108.08
550.34	27372.57
550.51	27358.52
550.68	27288.31
550.84	26965.31
551.01	27466.19
551.18	26740.62
551.34	27140.85
551.51	27075.32
551.68	27250.86
551.84	27407.67
552.01	27381.93
552.18	27260.22
552.34	27222.77
552.51	27555.13
552.68	27559.81
552.84	27302.35
553.01	27817.27
553.18	27321.07
553.34	27875.78
553.51	27611.30
553.67	27868.76
553.84	27700.24
554.01	27854.72
554.17	28236.22
554.34	28023.23
554.51	27608.96
554.67	27819.61
554.84	28011.53
555.00	27669.81
555.17	27665.13
555.33	27810.25
555.50	27985.79
555.67	27728.33
555.83	28119.20
556.00	27999.83
556.16	27969.40
556.33	28039.62
556.50	27999.83
556.66	28175.37
556.83	27927.27
556.99	28456.23
557.16	28524.11
557.32	28369.63
557.49	28065.36
557.65	28032.60
557.82	28135.58
557.98	27894.50
558.15	28168.35
558.32	28105.15
558.48	28500.70
558.65	28505.38
558.81	28446.87
558.98	28285.37
559.14	28285.37
559.31	28477.30
559.47	28283.03
559.64	28325.16
559.80	28545.17
559.97	28758.16
560.13	28748.80
560.30	28687.95
560.46	28510.07
560.63	28247.93
560.79	28290.06
560.96	28959.45
561.12	28669.22
561.29	28451.55
561.45	28397.72
561.61	28561.56
561.78	28882.21
561.94	28671.56
562.11	28840.08
562.27	28933.70
562.44	29106.90
562.60	28790.93
562.77	28493.68
562.93	28554.54
563.10	29230.95
563.26	28655.18
563.42	29015.62
563.59	29067.11
563.75	28669.22
563.92	29083.50
564.08	28800.29
564.24	28318.14
564.41	28465.60
564.57	28919.66
564.74	28758.16
564.90	28968.81
565.07	28931.36
565.23	28638.80
565.39	28868.17
565.56	29053.07
565.72	28687.95
565.88	28779.23
566.05	28968.81
566.21	28748.80
566.38	28666.88
566.54	28989.88
566.70	29142.01
566.87	28957.11
567.03	29415.85
567.19	29511.81
567.36	29167.76
567.52	28940.72
567.68	29259.04
567.85	29102.22
568.01	28683.27
568.17	28659.86
568.34	29144.35
568.50	29111.58
568.66	29488.41
568.83	29226.27
568.99	29280.10
569.15	28938.38
569.32	29022.64
569.48	28835.40
569.64	29303.51
569.81	29172.44
569.97	29116.26
570.13	29493.09
570.30	29703.74
570.46	29591.39
570.62	29319.89
570.78	28816.68
570.95	28966.47
571.11	29256.70
571.27	29177.12
571.43	28718.37
571.60	29467.34
571.76	29099.88
571.92	29509.47
572.09	29427.56
572.25	29350.32
572.41	29411.17
572.57	29619.48
572.74	29167.76
572.90	29291.80
573.06	29380.74
573.22	29069.45
573.38	29621.82
573.55	29029.66
573.71	29631.18
573.87	29701.40
574.03	29516.50
574.20	29560.97
574.36	29041.37
574.52	29413.51
574.68	29268.40
574.84	29509.47
575.01	29827.79
575.17	29509.47
575.33	29050.73
575.49	29806.72
575.65	29680.33
575.82	29640.54
575.98	29553.94
576.14	29551.60
576.30	29387.77
576.46	29195.84
576.62	29310.53
576.79	29362.02
576.95	29289.46
577.11	29755.23
577.27	29495.43
577.43	29624.16
577.59	29429.90
577.75	29596.07
577.92	29153.71
578.08	29507.13
578.24	29591.39
578.40	29525.86
578.56	29778.64
578.72	29556.28
578.88	29750.55
579.04	29738.85
579.21	29628.84
579.37	29713.10
579.53	29493.09
579.69	29263.72
579.85	29551.60
580.01	29638.20
580.17	29500.11
580.33	29687.36
580.49	29663.95
580.65	29626.50
580.82	29806.72
580.98	29743.53
581.14	30026.73
581.30	29745.87
581.46	29886.30
581.62	29750.55
581.78	29790.34
581.94	29560.97
582.10	29542.24
582.26	29373.72
582.42	29546.92
582.58	29806.72
582.74	29551.60
582.90	29626.50
583.06	29797.36
583.22	29652.25
583.38	29668.63
583.54	29816.08
583.70	29713.10
583.86	29446.28
584.02	29378.40
584.18	29879.28
584.34	29614.80
584.50	30146.10
584.66	29523.52
584.82	29528.20
584.98	29825.45
585.14	29479.05
585.30	29359.68
585.46	29649.91
585.62	29738.85
585.78	29773.95
585.94	29600.76
586.10	29914.39
586.26	29839.49
586.42	29851.19
586.58	29942.47
586.74	29722.46
586.90	29759.91
587.06	29556.28
587.22	29935.45
587.38	29567.99
587.54	29926.09
587.70	29963.54
587.86	30150.78
588.02	29755.23
588.18	29968.22
588.34	29692.04
588.49	29860.55
588.65	29380.74
588.81	29818.42
588.97	29851.19
589.13	29645.23
589.29	30052.48
589.45	29919.07
589.61	30031.41
589.77	29722.46
589.93	30101.63
590.08	30099.29
590.24	29811.40
590.40	29867.58
590.56	30190.57
590.72	29844.17
590.88	29940.13
591.04	29816.08
591.20	29998.65
591.35	30141.42
591.51	30560.37
591.67	30291.21
591.83	30153.12
591.99	29720.12
592.15	30316.96
592.31	30141.42
592.46	29809.06
592.62	29982.26
592.78	29881.62
592.94	30103.97
593.10	29820.77
593.26	30221.00
593.41	30345.05
593.57	30061.84
593.73	30288.87
593.89	30284.19
594.05	30120.35
594.20	29612.46
594.36	30244.40
594.52	29883.96
594.68	29881.62
594.84	29851.19
594.99	30129.72
595.15	30043.12
595.31	29996.31
595.47	30178.87
595.62	30279.51
595.78	30506.54
595.94	30008.01
596.10	30251.42
596.25	29872.26
596.41	30253.76
596.57	30235.04
596.73	30354.41
596.88	30223.34
597.04	30010.35
597.20	30092.27
597.36	30457.39
597.51	30630.59
597.67	30410.58
597.83	30513.56
597.99	30520.59
598.14	29916.73
598.30	30155.46
598.46	30349.73
598.61	30368.45
598.77	30213.98
598.93	30291.21
599.09	30127.38
599.24	30520.59
599.40	30293.55
599.56	30759.32
599.71	30291.21
599.87	30192.91
600.03	30218.66
600.18	30136.74
600.34	30253.76
600.50	30522.93
600.65	30195.25
600.81	30515.90
600.97	30073.54
601.12	30593.14
601.28	30616.55
601.44	30504.20
601.59	30497.18
601.75	30703.15
601.91	30349.73
602.06	30239.72
602.22	30118.01
602.37	30625.91
602.53	30300.58
602.69	30312.28
602.84	29928.43
603.00	30625.91
603.16	30576.76
603.31	30316.96
603.47	30237.38
603.62	30242.06
603.78	30490.16
603.94	30356.75
604.09	30157.80
604.25	30307.60
604.40	30302.92
604.56	29954.18
604.71	30558.03
604.87	30298.23
605.03	30391.86
605.18	30089.93
605.34	29879.28
605.49	30305.26
605.65	30094.61
605.80	30466.75
605.96	30064.18
606.12	30036.09
606.27	30637.61
606.43	29972.90
606.58	30614.21
606.74	30132.06
606.89	30323.98
607.05	30323.98
607.20	30342.70
607.36	30403.56
607.51	30174.19
607.67	29713.10
607.82	29736.51
607.98	30085.25
608.13	29851.19
608.29	30272.49
608.44	29912.05
608.60	30225.68
608.75	30431.65
608.91	30136.74
609.06	29881.62
609.22	29916.73
609.37	30279.51
609.53	30253.76
609.68	29703.74
609.84	29816.08
609.99	29940.13
610.15	29797.36
610.30	30323.98
610.46	30307.60
610.61	30597.82
610.76	30155.46
610.92	29811.40
611.07	29874.60
611.23	29907.37
611.38	29795.02
611.54	29940.13
611.69	29883.96
611.84	29928.43
612.00	29998.65
612.15	29750.55
612.31	29991.62
612.46	29465.00
612.62	30008.01
612.77	29771.61
612.92	29944.81
613.08	29769.27
613.23	29944.81
613.39	29591.39
613.54	29855.87
613.69	29799.70
613.85	29780.98
614.00	29757.57
614.15	29752.89
614.31	29759.91
614.46	30174.19
614.62	29832.47
614.77	29919.07
614.92	30075.88
615.08	29528.20
615.23	29474.37
615.38	29869.92
615.54	29359.68
615.69	29371.38
615.84	29685.01
616.00	29666.29
616.15	29415.85
616.30	29799.70
616.46	29467.34
616.61	29685.01
616.76	29853.53
616.92	29565.65
617.07	29762.25
617.22	29296.49
617.37	29778.64
617.53	29654.59
617.68	29322.23
617.83	29123.29
617.99	29113.92
618.14	29717.78
618.29	29462.66
618.45	29053.07
618.60	29291.80
618.75	29734.17
618.90	29504.79
619.06	29324.57
619.21	29160.73
619.36	29443.94
619.51	28809.65
619.67	29006.26
619.82	28788.59
619.97	29167.76
620.12	28776.89
620.28	28868.17
620.43	29247.33
620.58	29502.45
620.73	29453.30
620.89	29090.52
621.04	29294.14
621.19	29214.57
621.34	29177.12
621.49	28999.24
621.65	29237.97
621.80	29149.03
621.95	28919.66
622.10	28730.08
622.25	29226.27
622.41	28816.68
622.56	28854.12
622.71	29081.16
622.86	28568.58
623.01	28790.93
623.16	28844.76
623.32	28690.29
623.47	28879.87
623.62	28669.22
623.77	28978.17
623.92	28620.07
624.07	28507.72
624.23	28538.15
624.38	28765.18
624.53	28500.70
624.68	29156.05
624.83	28931.36
624.98	28762.84
625.13	28828.38
625.29	28889.23
625.44	28739.44
625.59	28730.08
625.74	28542.83
625.89	28645.82
626.04	28467.94
626.19	28039.62
626.34	28505.38
626.49	28341.55
626.65	28610.71
626.80	28687.95
626.95	28350.91
627.10	28404.74
627.25	28610.71
627.40	28655.18
627.55	28252.61
627.70	28687.95
627.85	28231.54
628.00	28545.17
628.15	28224.52
628.30	27756.41
628.45	28217.50
628.60	28198.77
628.76	28322.82
628.91	28432.83
629.06	28065.36
629.21	28332.18
629.36	28154.30
629.51	28058.34
629.66	27943.66
629.81	28105.15
629.96	27744.71
630.11	27901.53
630.26	27946.00
630.41	28086.43
630.56	27824.29
630.71	27847.69
630.86	27920.25
631.01	28116.86
631.16	28320.48
631.31	27864.08
631.46	27957.70
631.61	28039.62
631.76	28058.34
631.91	27824.29
632.06	27466.19
632.21	27700.24
632.36	27824.29
632.51	27466.19
632.66	27821.95
632.81	27690.88
632.96	27997.49
633.10	27800.88
633.25	27871.10
633.40	28016.21
633.55	27985.79
633.70	27660.45
633.85	27527.04
634.00	27143.19
634.15	27201.71
634.30	27370.22
634.45	27496.61
634.60	27325.75
634.75	27391.29
634.90	27367.88
635.05	27274.26
635.19	27651.09
635.34	27936.63
635.49	27316.39
635.64	27733.01
635.79	27866.42
635.94	27737.69
636.09	27049.57
636.24	27414.69
636.39	27239.15
636.53	27091.70
636.68	27426.40
636.83	27126.81
636.98	27124.47
637.13	27346.82
637.28	27239.15
637.43	27353.84
637.57	27480.23
637.72	27171.28
637.87	27197.02
638.02	27316.39
638.17	27349.16
638.32	26845.94
638.46	26848.29
638.61	27061.27
638.76	27159.58
638.91	26415.29
639.06	27070.64
639.20	26913.82
639.35	27115.11
639.50	27021.48
639.65	27220.43
639.80	27187.66
639.94	26717.22
640.09	27108.08
640.24	26946.59
640.39	26693.81
640.54	26562.74
640.68	27082.34
640.83	26768.71
640.98	26752.32
641.13	26122.72
641.27	26731.26
641.42	26520.61
641.57	26817.86
641.72	26845.94
641.86	26508.91
642.01	26796.79
642.16	27058.93
642.31	26394.22
642.45	26649.34
642.60	26593.17
642.75	26272.51
642.90	26492.52
643.04	26546.36
643.19	26342.73
643.34	26520.61
643.48	26162.51
643.63	26628.27
643.78	26239.75
643.93	26508.91
644.07	26754.66
644.22	26668.06
644.37	26366.13
644.51	26705.51
644.66	26258.47
644.81	26246.77
644.95	26047.82
645.10	26368.48
645.25	26045.48
645.39	26206.98
645.54	26171.87
645.69	26267.83
645.83	26246.77
645.98	26434.01
646.13	26361.45
646.27	26209.32
646.42	26403.58
646.57	26160.17
646.71	26246.77
646.86	26464.44
647.00	26277.19
647.15	26092.29
647.30	25930.80
647.44	25895.69
647.59	25900.37
647.74	25970.58
647.88	25898.03
648.03	26031.44
648.17	26232.72
648.32	26221.02
648.47	26164.85
648.61	25785.68
648.76	26258.47
648.90	26047.82
649.05	26012.71
649.20	25809.09
649.34	25736.53
649.49	25582.06
649.63	25596.10
649.78	25830.15
649.92	25694.40
650.07	25507.16
650.21	25869.94
650.36	25486.09
650.51	25596.10
650.65	26036.12
650.80	25773.98
650.94	26108.68
651.09	25867.60
651.23	25853.56
651.38	25689.72
651.52	25369.07
651.67	25535.24
651.81	25624.18
651.96	25671.00
652.10	25626.53
652.25	25635.89
652.39	25895.69
652.54	25642.91
652.68	25593.76
652.83	25565.67
652.97	25982.29
653.12	25652.27
653.26	25252.04
653.41	25586.74
653.55	25207.57
653.70	25301.19
653.84	25376.09
653.99	25142.03
654.13	25373.75
654.27	25532.90
654.42	25032.03
654.56	25137.35
654.71	25458.01
654.85	25223.95
655.00	25043.73
655.14	25350.34
655.29	25317.57
655.43	25294.17
655.57	25123.31
655.72	25027.35
655.86	25017.99
656.01	24978.20
656.15	25067.14
656.30	24968.84
656.44	25074.16
656.58	25010.96
656.73	25230.98
656.87	24570.94
657.01	25230.98
657.16	25411.20
657.30	25034.37
657.45	24999.26
657.59	25315.23
657.73	24954.79
657.88	25275.45
658.02	24744.14
658.16	24940.75
658.31	24592.01
658.45	24748.82
658.60	24645.84
658.74	25025.01
658.88	24547.54
659.03	24809.68
659.17	24596.69
659.31	24477.32
659.46	24531.15
659.60	24975.86
659.74	24512.43
659.89	24547.54
660.03	24709.04
660.17	24376.68
660.32	24285.40
660.46	24142.63
660.60	24294.76
660.74	24245.61
660.89	24201.14
661.03	24182.42
661.17	24355.61
661.32	24142.63
661.46	24493.71
661.60	24346.25
661.74	24257.31
661.89	24020.92
662.03	24418.81
662.17	24292.42
662.31	23906.23
662.46	23941.34
662.60	24084.11
662.74	23906.23
662.88	23728.35
663.03	23426.42
663.17	23908.57
663.31	23487.28
663.45	23557.49
663.60	23707.29
663.74	23616.01
663.88	23894.53
664.02	23630.05
664.17	23887.51
664.31	23428.76
664.45	23618.35
664.59	23679.20
664.73	23452.17
664.88	23632.39
665.02	23452.17
665.16	23150.24
665.30	23168.96
665.44	23187.69
665.59	23370.25
665.73	23122.15
665.87	22995.76
666.01	23131.51
666.15	23194.71
666.29	23021.51
666.44	23267.27
666.58	22986.40
666.72	22806.18
666.86	23388.97
667.00	23161.94
667.14	23012.15
667.28	23077.68
667.43	22878.74
667.57	22710.22
667.71	22801.50
667.85	22745.33
667.99	22384.88
668.13	22492.55
668.27	22911.50
668.41	22864.69
668.56	22794.48
668.70	22616.60
668.84	22443.40
668.98	22876.40
669.12	22696.17
669.26	22494.89
669.40	22530.00
669.54	22410.63
669.68	22394.25
669.82	22644.68
669.96	22045.51
670.10	21982.31
670.25	22267.86
670.39	22162.53
670.53	22218.71
670.67	21982.31
670.81	21961.25
670.95	22237.43
671.09	22143.81
671.23	22169.55
671.37	22164.87
671.51	22134.45
671.65	21919.12
671.79	21696.77
671.93	21701.45
672.07	21912.10
672.21	21617.19
672.35	21474.42
672.49	21502.50
672.63	21359.73
672.77	21528.25
672.91	21680.38
673.05	21907.41
673.19	21549.31
673.33	21551.65
673.47	21638.25
673.61	21488.46
673.75	21535.27
673.89	21539.95
674.03	21291.85
674.17	21015.67
674.31	21226.32
674.45	21128.02
674.59	20854.17
674.73	21046.10
674.87	20900.98
675.01	20996.95
675.15	20938.43
675.29	20355.64
675.43	20634.16
675.56	20790.98
675.70	20662.25
675.84	20463.30
675.98	19880.51
676.12	20575.65
676.26	20634.16
676.40	20627.14
676.54	20533.52
676.68	20596.71
676.82	20037.33
676.96	20290.10
677.10	20262.02
677.23	20299.47
677.37	20046.69
677.51	19997.54
677.65	19728.38
677.79	19997.54
677.93	19714.33
678.07	19861.79
678.21	19667.52
678.34	19412.40
678.48	19609.01
678.62	19477.94
678.76	19882.85
678.90	19417.08
679.04	19517.73
679.18	19578.58
679.31	19178.35
679.45	19051.96
679.59	19192.39
679.73	19021.53
679.87	18874.08
680.00	18862.38
680.14	18871.74
680.28	19047.28
680.42	19098.77
680.56	18867.06
680.70	18787.48
680.83	18661.09
680.97	18738.33
681.11	19005.15
681.25	18614.28
681.39	18494.91
681.52	18668.11
681.66	18410.65
681.80	18260.86
681.94	18038.51
682.07	18555.77
682.21	18153.20
682.35	17937.87
682.49	17701.47
682.62	18066.60
682.76	17848.93
682.90	18005.74
683.04	17972.97
683.17	17942.55
683.31	17921.48
683.45	17877.01
683.59	17628.92
683.72	17851.27
683.86	17727.22
684.00	17614.87
684.13	17294.22
684.27	17635.94
684.41	17226.34
684.55	17081.23
684.68	16776.96
684.82	17001.65
684.96	17345.71
685.09	16898.67
685.23	17172.51
685.37	16868.24
685.50	16868.24
685.64	16987.61
685.78	16882.28
685.91	16933.78
686.05	16837.81
686.19	16580.36
686.32	16915.05
686.46	16615.46
686.60	16353.32
686.73	16439.92
686.87	16332.26
687.01	16149.70
687.14	16203.53
687.28	16322.90
687.42	16016.29
687.55	16102.89
687.69	16130.97
687.82	15791.59
687.96	16168.42
688.10	16060.76
688.23	15957.77
688.37	16013.95
688.50	15817.34
688.64	15772.87
688.78	15625.42
688.91	15421.79
689.05	15566.90
689.18	15517.75
689.32	15426.47
689.46	15150.29
689.59	15194.76
689.73	15173.69
689.86	15222.84
690.00	15257.95
690.13	15215.82
690.27	15138.58
690.41	14986.45
690.54	15077.73
690.68	14967.73
690.81	15187.74
690.95	14988.79
691.08	15068.37
691.22	14747.72
691.35	14705.59
691.49	14848.36
691.62	14759.42
691.76	14459.83
691.89	14541.75
692.03	13984.70
692.16	14295.99
692.30	14366.21
692.43	14122.79
692.57	14223.44
692.70	14263.22
692.84	14155.56
692.97	14132.15
693.11	14239.82
693.24	13919.17
693.38	13844.27
693.51	13549.36
693.65	13961.30
693.78	13860.65
693.92	13668.73
694.05	13642.98
694.19	13537.66
694.32	13514.25
694.45	13460.42
694.59	13282.54
694.72	13418.29
694.86	13198.28
694.99	12966.57
695.13	13071.89
695.26	13167.85
695.39	12886.99
695.53	13298.92
695.66	13097.64
695.80	13095.30
695.93	13099.98
696.07	13025.08
696.20	13205.30
696.33	12826.14
696.47	12638.89
696.60	12791.03
696.73	12315.90
696.87	12730.17
697.00	12571.02
697.14	12475.06
697.27	12163.76
697.40	12372.07
697.54	12343.99
697.67	12177.81
697.80	12198.87
697.94	12119.29
698.07	11941.41
698.21	12114.61
698.34	11976.52
698.47	11850.13
698.61	11868.86
698.74	12084.19
698.87	11899.28
699.01	11779.92
699.14	11672.25
699.27	11653.53
699.40	11882.90
699.54	11555.22
699.67	11398.41
699.80	11433.52
699.94	11363.30
700.07	11428.84
700.20	11286.06
700.34	11304.79
700.47	11098.82
700.60	11222.87
700.73	11016.90
700.87	11145.63
701.00	11047.33
701.13	10932.64
701.26	11021.58
701.40	11185.42
701.53	11164.36
701.66	10927.96
701.79	10876.47
701.93	10839.02
702.06	10647.10
702.19	10574.54
702.32	10654.12
702.46	10370.91
702.59	10396.66
702.72	10300.70
702.85	10174.31
702.99	10317.08
703.12	10155.58
703.25	10270.27
703.38	10228.14
703.51	10242.18
703.65	10281.97
703.78	10167.29
703.91	10281.97
704.04	10209.42
704.17	10312.40
704.31	9994.09
704.44	9893.44
704.57	9823.23
704.70	9673.43
704.83	9643.01
704.96	9614.92
705.10	9572.79
705.23	9394.91
>>>>>End Processed Spectral Data<<<<<
