SpectraSuite Data File
++++++++++++++++++++++++++++++++++++
Date: Fri Oct 18 13:58:28 GMT-05:00 2013
User: bianchi
Dark Spectrum Present: No
Reference Spectrum Present: No
Number of Sampled Component Spectra: 1
Spectrometers: USB2+H05261
Integration Time (usec): 50000 (USB2+H05261)
Spectra Averaged: 1 (USB2+H05261)
Boxcar Smoothing: 0 (USB2+H05261)
Correct for Electrical Dark: No (USB2+H05261)
Strobe/Lamp Enabled: No (USB2+H05261)
Correct for Detector Non-linearity: No (USB2+H05261)
Correct for Stray Light: No (USB2+H05261)
Number of Pixels in Processed Spectrum: 2048
>>>>>Begin Processed Spectral Data<<<<<
365.73	0.00
365.92	0.00
366.12	0.00
366.32	0.00
366.52	0.00
366.72	0.00
366.91	0.00
367.11	0.00
367.31	0.00
367.51	0.00
367.70	0.00
367.90	0.00
368.10	0.00
368.30	0.00
368.49	0.00
368.69	0.00
368.89	0.00
369.09	0.00
369.28	0.00
369.48	0.00
369.68	0.00
369.87	0.00
370.07	0.00
370.27	0.00
370.47	0.00
370.66	98.30
370.86	81.92
371.06	149.79
371.25	98.30
371.45	124.05
371.65	121.71
371.84	149.79
372.04	156.82
372.24	121.71
372.44	245.76
372.63	208.31
372.83	177.88
373.03	245.76
373.22	138.09
373.42	173.20
373.62	252.78
373.81	189.58
374.01	304.27
374.21	273.84
374.40	255.12
374.60	294.91
374.79	299.59
374.99	243.42
375.19	222.35
375.38	245.76
375.58	208.31
375.78	339.38
375.97	287.89
376.17	266.82
376.37	231.71
376.56	194.26
376.76	215.33
376.95	252.78
377.15	262.14
377.35	234.05
377.54	271.50
377.74	184.90
377.93	292.57
378.13	313.63
378.33	231.71
378.52	283.20
378.72	325.33
378.91	245.76
379.11	201.29
379.31	273.84
379.50	285.55
379.70	327.68
379.89	313.63
380.09	351.08
380.28	287.89
380.48	299.59
380.68	332.36
380.87	212.99
381.07	362.78
381.26	248.10
381.46	318.31
381.65	257.46
381.85	421.30
382.04	320.65
382.24	306.61
382.43	369.80
382.63	334.70
382.83	320.65
383.02	367.46
383.22	447.04
383.41	332.36
383.61	369.80
383.80	325.33
384.00	372.15
384.19	425.98
384.39	458.74
384.58	397.89
384.78	346.40
384.97	369.80
385.17	327.68
385.36	376.83
385.56	416.62
385.75	393.21
385.95	409.59
386.14	372.15
386.34	365.12
386.53	395.55
386.72	428.32
386.92	430.66
387.11	428.32
387.31	465.77
387.50	416.62
387.70	397.89
387.89	421.30
388.09	390.87
388.28	435.34
388.48	465.77
388.67	411.93
388.86	414.27
389.06	470.45
389.25	442.36
389.45	435.34
389.64	468.11
389.84	435.34
390.03	435.34
390.22	458.74
390.42	358.10
390.61	491.51
390.81	482.15
391.00	545.34
391.19	433.00
391.39	493.85
391.58	428.32
391.78	475.13
391.97	477.47
392.16	519.60
392.36	552.37
392.55	599.18
392.75	559.39
392.94	594.50
393.13	496.19
393.33	543.00
393.52	573.43
393.71	634.29
393.91	550.03
394.10	571.09
394.29	620.24
394.49	585.13
394.68	582.79
394.88	622.58
395.07	653.01
395.26	561.73
395.46	627.26
395.65	634.29
395.84	641.31
396.04	723.23
396.23	568.75
396.42	660.03
396.62	657.69
396.81	674.07
397.00	631.94
397.19	620.24
397.39	613.22
397.58	713.86
397.77	678.76
397.97	697.48
398.16	629.60
398.35	678.76
398.55	671.73
398.74	636.63
398.93	826.21
399.12	781.74
399.32	713.86
399.51	767.70
399.70	809.83
399.90	683.44
400.09	774.72
400.28	727.91
400.47	744.29
400.67	751.31
400.86	758.33
401.05	898.77
401.24	751.31
401.44	802.80
401.63	844.93
401.82	830.89
402.01	737.27
402.21	814.51
402.40	816.85
402.59	849.61
402.78	805.14
402.97	854.30
403.17	905.79
403.36	880.04
403.55	751.31
403.74	833.23
403.93	875.36
404.13	870.68
404.32	961.96
404.51	943.24
404.70	898.77
404.89	926.85
405.09	1001.75
405.28	952.60
405.47	985.37
405.66	971.32
405.85	1046.22
406.05	959.62
406.24	983.02
406.43	1004.09
406.62	1125.80
406.81	1137.50
407.00	1025.15
407.20	954.94
407.39	1008.77
407.58	1020.47
407.77	1013.45
407.96	1062.60
408.15	1104.73
408.34	1071.97
408.54	1078.99
408.73	1093.03
408.92	1100.05
409.11	1114.10
409.30	1123.46
409.49	1088.35
409.68	1179.63
409.87	1128.14
410.07	1111.75
410.26	1128.14
410.45	1177.29
410.64	1181.97
410.83	1235.80
411.02	1188.99
411.21	1196.01
411.40	1198.35
411.59	1191.33
411.78	1299.00
411.98	1172.61
412.17	1324.74
412.36	1310.70
412.55	1291.98
412.74	1366.87
412.93	1233.46
413.12	1275.59
413.31	1352.83
413.50	1266.23
413.69	1345.81
413.88	1369.21
414.07	1378.58
414.26	1483.90
414.45	1394.96
414.64	1425.39
414.83	1488.58
415.02	1570.50
415.22	1427.73
415.41	1650.08
415.60	1502.62
415.79	1589.22
415.98	1577.52
416.17	1659.44
416.36	1523.69
416.55	1661.78
416.74	1722.63
416.93	1645.40
417.12	1652.42
417.31	1624.33
417.50	1659.44
417.69	1720.29
417.88	1701.57
418.07	1680.50
418.26	1753.06
418.45	1783.49
418.64	1741.36
418.83	1790.51
419.02	1717.95
419.21	1874.77
419.39	1858.39
419.58	1872.43
419.77	1734.34
419.96	1853.70
420.15	1781.15
420.34	1837.32
420.53	1802.21
420.72	1898.17
420.91	1944.99
421.10	1877.11
421.29	1940.30
421.48	1928.60
421.67	2062.01
421.86	1959.03
422.05	1928.60
422.24	2078.40
422.43	1935.62
422.61	1909.88
422.80	1930.94
422.99	2090.10
423.18	2001.16
423.37	1984.77
423.56	1930.94
423.75	1921.58
423.94	2026.90
424.13	1879.45
424.32	1853.70
424.50	1935.62
424.69	2001.16
424.88	1996.48
425.07	1944.99
425.26	2003.50
425.45	2064.35
425.64	1982.43
425.83	2113.50
426.01	2001.16
426.20	1973.07
426.39	1977.75
426.58	2033.93
426.77	2150.95
426.96	2146.27
427.15	2148.61
427.33	1996.48
427.52	2052.65
427.71	2108.82
427.90	2129.89
428.09	2113.50
428.28	2146.27
428.46	2211.81
428.65	2188.40
428.84	2186.06
429.03	2237.55
429.22	2176.70
429.40	2211.81
429.59	2319.47
429.78	2153.29
429.97	2155.63
430.16	2186.06
430.34	2209.47
430.53	2279.68
430.72	2380.32
430.91	2253.94
431.10	2186.06
431.28	2328.83
431.47	2368.62
431.66	2417.77
431.85	2396.71
432.03	2513.74
432.22	2541.82
432.41	2399.05
432.60	2382.67
432.79	2352.24
432.97	2300.75
433.16	2326.49
433.35	2406.07
433.54	2588.63
433.72	2495.01
433.91	2377.98
434.10	2478.63
434.28	2490.33
434.47	2506.71
434.66	2567.57
434.85	2581.61
435.03	2551.18
435.22	2581.61
435.41	2675.23
435.59	2597.99
435.78	2635.44
435.97	2565.23
436.16	2544.16
436.34	2668.21
436.53	2717.36
436.72	2761.83
436.90	2672.89
437.09	2717.36
437.28	2623.74
437.46	2712.68
437.65	2668.21
437.84	2619.06
438.02	2740.77
438.21	2703.32
438.40	2766.51
438.58	2778.22
438.77	2799.28
438.96	2888.22
439.14	2869.50
439.33	2935.03
439.52	2988.86
439.70	2965.46
439.89	2918.65
440.08	2960.78
440.26	2913.97
440.45	3019.29
440.63	3047.38
440.82	3162.06
441.01	3040.36
441.19	3218.24
441.38	3110.57
441.57	3178.45
441.75	3218.24
441.94	3262.71
442.12	3304.84
442.31	3325.90
442.50	3241.64
442.68	3314.20
442.87	3283.77
443.05	3426.54
443.24	3506.12
443.43	3330.58
443.61	3370.37
443.80	3375.05
443.98	3454.63
444.17	3169.09
444.35	3243.98
444.54	3574.00
444.73	3400.80
444.91	3279.09
445.10	3349.31
445.28	3463.99
445.47	3309.52
445.65	3428.88
445.84	3377.39
446.02	3433.57
446.21	3414.84
446.39	3393.78
446.58	3384.41
446.77	3440.59
446.95	3447.61
447.14	3452.29
447.32	3517.83
447.51	3473.36
447.69	3478.04
447.88	3492.08
448.06	3534.21
448.25	3492.08
448.43	3548.25
448.62	3466.33
448.80	3435.91
448.99	3428.88
449.17	3555.27
449.36	3609.11
449.54	3557.61
449.73	3606.77
449.91	3749.54
450.10	3557.61
450.28	3660.60
450.46	3721.45
450.65	3847.84
450.83	3566.98
451.02	3604.42
451.20	3854.86
451.39	3625.49
451.57	3644.21
451.76	3681.66
451.94	3735.50
452.13	3798.69
452.31	3803.37
452.49	3791.67
452.68	3744.86
452.86	3779.97
453.05	3861.88
453.23	3995.29
453.42	3815.07
453.60	3854.86
453.78	3950.82
453.97	3960.19
454.15	3847.84
454.34	3946.14
454.52	4016.36
454.70	3892.31
454.89	4007.00
455.07	3960.19
455.26	4070.19
455.44	4018.70
455.62	4065.51
455.81	4009.34
455.99	4044.45
456.17	3974.23
456.36	4023.38
456.54	4161.47
456.73	4039.76
456.91	4320.63
457.09	4170.83
457.28	4449.36
457.46	4227.01
457.64	4224.67
457.83	4325.31
458.01	4177.86
458.19	4327.65
458.38	4269.14
458.56	4395.53
458.74	4278.50
458.93	4393.19
459.11	4374.46
459.29	4454.04
459.48	4472.76
459.66	4257.43
459.84	4507.87
460.03	4521.92
460.21	4440.00
460.39	4475.10
460.57	4421.27
460.76	4484.47
460.94	4533.62
461.12	4545.32
461.31	4578.09
461.49	4622.56
461.67	4645.96
461.85	4681.07
462.04	4704.48
462.22	4786.40
462.40	4741.93
462.59	4723.20
462.77	4617.88
462.95	4741.93
463.13	4716.18
463.32	4669.37
463.50	4795.76
463.68	4711.50
463.86	4767.67
464.05	4662.35
464.23	4830.87
464.41	4898.74
464.59	4861.29
464.78	4915.12
464.96	4779.37
465.14	4835.55
465.32	4894.06
465.50	4943.21
465.69	4910.44
465.87	4908.10
466.05	4919.81
466.23	4840.23
466.41	5041.51
466.60	5137.48
466.78	4819.16
466.96	4915.12
467.14	4985.34
467.32	4983.00
467.51	5116.41
467.69	4954.91
467.87	5284.93
468.05	5121.09
468.23	4983.00
468.41	5123.43
468.60	5167.90
468.78	5238.12
468.96	5060.24
469.14	5256.84
469.32	5282.59
469.50	5200.67
469.69	5383.23
469.87	5376.21
470.05	5500.26
470.23	5233.44
470.41	5301.31
470.59	5376.21
470.77	5317.70
470.95	5469.83
471.14	5490.90
471.32	5451.11
471.50	5483.88
471.68	5364.51
471.86	5511.96
472.04	5500.26
472.22	5610.26
472.40	5661.76
472.58	5518.98
472.77	5598.56
472.95	5937.94
473.13	5916.87
473.31	5802.19
473.49	5846.66
473.67	5818.57
473.85	5790.49
474.03	6040.92
474.21	5914.53
474.39	6078.37
474.57	6078.37
474.75	6078.37
474.93	6071.35
475.12	6047.94
475.30	6160.29
475.48	6174.33
475.66	6265.61
475.84	6282.00
476.02	6300.72
476.20	6338.17
476.38	6333.49
476.56	6546.48
476.74	6331.15
476.92	6504.35
477.10	6586.27
477.28	6523.07
477.46	6544.14
477.64	6773.51
477.82	6623.72
478.00	6860.11
478.18	6892.88
478.36	6771.17
478.54	6853.09
478.72	7009.90
478.90	6981.82
479.08	7028.63
479.26	7143.32
479.44	7192.47
479.62	7246.30
479.80	7089.48
479.98	7344.60
480.16	7522.48
480.34	7527.16
480.52	7246.30
480.70	7667.60
480.88	7485.03
481.06	7651.21
481.24	7658.23
481.41	7550.57
481.59	7957.82
481.77	7946.12
481.95	7878.24
482.13	8142.72
482.31	7925.05
482.49	8102.93
482.67	8175.49
482.85	8294.86
483.03	8315.92
483.21	8531.25
483.39	8688.07
483.57	8454.02
483.74	8571.04
483.92	8652.96
484.10	8575.72
484.28	8528.91
484.46	8762.97
484.64	8968.93
484.82	8908.08
485.00	8940.85
485.18	9163.20
485.35	9256.82
485.53	9142.13
485.71	9224.05
485.89	9565.77
486.07	9423.00
486.25	9380.87
486.43	9404.27
486.61	9530.66
486.78	9905.15
486.96	9900.47
487.14	10017.49
487.32	9947.28
487.50	10101.75
487.68	10040.90
487.85	10249.21
488.03	10265.59
488.21	10417.72
488.39	10406.02
488.57	10499.64
488.75	10441.13
488.92	10630.71
489.10	10766.46
489.28	10523.05
489.46	10991.16
489.64	10752.42
489.81	11197.12
489.99	11173.72
490.17	11124.57
490.35	11267.34
490.53	11473.31
490.70	11604.38
490.88	11410.11
491.06	11623.10
491.24	11543.52
491.41	11707.36
491.59	11850.13
491.77	11894.60
491.95	11927.37
492.13	12004.61
492.30	12222.28
492.48	12203.55
492.66	12102.91
492.84	12376.75
493.01	12329.94
493.19	12472.71
493.37	12659.96
493.54	12461.01
493.72	12592.08
493.90	12744.22
494.08	12868.27
494.25	12746.56
494.43	13060.19
494.61	13181.90
494.79	13256.79
494.96	13111.68
495.14	13282.54
495.32	13390.20
495.49	13607.87
495.67	13668.73
495.85	13671.07
496.02	13741.29
496.20	13888.74
496.38	13792.78
496.55	13841.93
496.73	14064.28
496.91	13898.10
497.09	14258.54
497.26	14129.81
497.44	14265.57
497.62	14127.47
497.79	14523.02
497.97	14218.75
498.14	14616.65
498.32	14911.55
498.50	14817.93
498.67	14782.82
498.85	14658.78
499.03	14953.68
499.20	14675.16
499.38	14824.95
499.56	14963.04
499.73	15063.69
499.91	14949.00
500.08	15365.62
500.26	15049.64
500.44	15241.57
500.61	15255.61
500.79	15253.27
500.97	15531.80
501.14	15768.19
501.32	15744.78
501.49	15726.06
501.67	15564.56
501.84	15770.53
502.02	15704.99
502.20	15857.13
502.37	15964.79
502.55	15922.66
502.72	16395.45
502.90	16112.25
503.07	16051.39
503.25	16035.01
503.43	16020.97
503.60	16313.53
503.78	16346.30
503.95	16264.38
504.13	16468.01
504.30	16308.85
504.48	16538.23
504.65	16725.47
504.83	16496.10
505.01	16994.63
505.18	16781.64
505.36	17158.47
505.53	17043.78
505.71	17158.47
505.88	17043.78
506.06	16737.17
506.23	17193.58
506.41	17305.92
506.58	16985.27
506.76	17095.27
506.93	17170.17
507.11	17334.01
507.28	17355.07
507.46	17275.49
507.63	17275.49
507.81	17577.42
507.98	17558.70
508.16	17373.80
508.33	17626.57
508.50	17635.94
508.68	17774.03
508.85	18029.15
509.03	17928.50
509.20	18008.08
509.38	17947.23
509.55	18132.13
509.73	18260.86
509.90	17951.91
510.08	17724.88
510.25	18073.62
510.42	18178.94
510.60	18555.77
510.77	18183.62
510.95	18555.77
511.12	18511.30
511.30	18258.52
511.47	18796.84
511.64	18721.95
511.82	18834.29
511.99	18817.91
512.17	18771.10
512.34	18906.85
512.51	18993.45
512.69	19309.42
512.86	18930.25
513.04	19016.85
513.21	19157.28
513.38	19150.26
513.56	18946.64
513.73	19236.86
513.90	19185.37
514.08	19257.93
514.25	19330.48
514.43	19414.74
514.60	19538.79
514.77	19850.08
514.95	19676.88
515.12	19412.40
515.29	19412.40
515.47	19234.52
515.64	19817.32
515.81	19854.76
515.99	19850.08
516.16	19981.15
516.33	19604.33
516.51	19927.32
516.68	19899.23
516.85	19814.98
517.03	20051.37
517.20	20301.81
517.37	20144.99
517.54	20147.33
517.72	20386.07
517.89	20290.10
518.06	19859.45
518.24	20517.14
518.41	20173.08
518.58	20467.98
518.75	20510.11
518.93	20613.10
519.10	20458.62
519.27	20924.39
519.45	20896.30
519.62	20685.65
519.79	20809.70
519.96	20814.38
520.14	21137.38
520.31	20727.78
520.48	20957.16
520.65	20889.28
520.83	21425.26
521.00	20992.26
521.17	21188.87
521.34	21415.90
521.52	21060.14
521.69	21261.43
521.86	21287.17
522.03	21610.17
522.20	21149.08
522.38	21781.03
522.55	21476.76
522.72	21879.33
522.89	21383.13
523.07	21626.55
523.24	21731.87
523.41	22232.75
523.58	21612.51
523.75	22003.38
523.92	21605.49
524.10	21759.96
524.27	22040.82
524.44	22143.81
524.61	22061.89
524.78	22345.09
524.96	22202.32
525.13	22153.17
525.30	22295.94
525.47	22471.48
525.64	22340.41
525.81	22644.68
525.98	22424.67
526.16	22384.88
526.33	22499.57
526.50	22314.67
526.67	22544.04
526.84	22373.18
527.01	22677.45
527.18	23000.44
527.36	23115.13
527.53	23040.23
527.70	22946.61
527.87	23040.23
528.04	23007.47
528.21	22965.34
528.38	22824.90
528.55	22986.40
528.72	22958.31
528.89	22789.80
529.07	23021.51
529.24	22960.66
529.41	23522.38
529.58	23152.58
529.75	23103.43
529.92	23152.58
530.09	23241.52
530.26	23477.91
530.43	23309.40
530.60	23428.76
530.77	23290.67
530.94	23693.24
531.11	23613.66
531.28	23496.64
531.46	23784.52
531.63	23660.48
531.80	23616.01
531.97	23777.50
532.14	23789.20
532.31	23627.71
532.48	23716.65
532.65	24030.28
532.82	23527.06
532.99	23864.10
533.16	23747.08
533.33	23817.29
533.50	24243.27
533.67	24112.20
533.84	23770.48
534.01	24154.33
534.18	23754.10
534.35	24423.49
534.52	24004.53
534.69	24606.05
534.86	24269.01
535.03	24065.39
535.20	24456.26
535.37	24416.47
535.54	24624.78
535.71	24203.48
535.88	24456.26
536.05	24482.00
536.22	24613.07
536.38	25151.40
536.55	24645.84
536.72	24767.55
536.89	24662.22
537.06	24725.42
537.23	24870.53
537.40	24631.80
537.57	24971.18
537.74	24648.18
537.91	25298.85
538.08	24577.97
538.25	24760.53
538.42	25181.82
538.59	24999.26
538.75	24781.59
538.92	24978.20
539.09	25123.31
539.26	25163.10
539.43	25001.60
539.60	25106.93
539.77	24994.58
539.94	25060.12
540.11	25390.13
540.28	25174.80
540.44	25429.92
540.61	24947.77
540.78	25144.38
540.95	25575.03
541.12	25256.72
541.29	25312.89
541.46	25659.29
541.62	25273.10
541.79	25752.91
541.96	25102.25
542.13	25575.03
542.30	25598.44
542.47	25759.94
542.63	25991.65
542.80	25998.67
542.97	26127.40
543.14	26094.63
543.31	25965.90
543.48	26052.50
543.64	26352.09
543.81	25766.96
543.98	26319.32
544.15	26101.65
544.32	26246.77
544.48	26101.65
544.65	25993.99
544.82	26375.50
544.99	25790.36
545.16	26143.78
545.32	26146.12
545.49	26522.95
545.66	26827.22
545.83	26639.98
546.00	26817.86
546.16	26675.09
546.33	26417.63
546.50	26129.74
546.67	26237.41
546.83	26345.07
547.00	26492.52
547.17	26639.98
547.34	26401.24
547.50	26459.76
547.67	27019.14
547.84	26712.53
548.00	26642.32
548.17	26995.74
548.34	26841.26
548.51	26960.63
548.67	27211.07
548.84	26773.39
549.01	26738.28
549.18	26974.67
549.34	26759.34
549.51	26913.82
549.68	27159.58
549.84	26824.88
550.01	27124.47
550.18	26686.79
550.34	26897.44
550.51	27194.68
550.68	27178.30
550.84	26719.56
551.01	26745.30
551.18	27365.54
551.34	26972.33
551.51	26998.08
551.68	27239.15
551.84	27384.27
552.01	27023.83
552.18	27112.77
552.34	27023.83
552.51	27325.75
552.68	27171.28
552.84	27693.22
553.01	27023.83
553.18	27461.51
553.34	27433.42
553.51	27459.16
553.67	27452.14
553.84	27749.39
554.01	27463.85
554.17	27679.18
554.34	27555.13
554.51	27868.76
554.67	27388.95
554.84	27747.05
555.00	27660.45
555.17	27964.72
555.33	27487.25
555.50	27789.18
555.67	27878.12
555.83	27702.58
556.00	27601.94
556.16	28074.73
556.33	27728.33
556.50	27938.97
556.66	27730.67
556.83	27871.10
556.99	28016.21
557.16	28041.96
557.32	28144.94
557.49	28383.68
557.65	27903.87
557.82	27838.33
557.98	28102.81
558.15	28219.84
558.32	28327.50
558.48	27927.27
558.65	28304.10
558.81	27910.89
558.98	27964.72
559.14	27941.32
559.31	27948.34
559.47	28318.14
559.64	28292.40
559.80	28079.41
559.97	28163.67
560.13	28201.11
560.30	28250.27
560.46	28437.51
560.63	28208.14
560.79	28325.16
560.96	28350.91
561.12	28418.78
561.29	28119.20
561.45	28304.10
561.61	28367.29
561.78	28484.32
561.94	28753.48
562.11	28608.37
562.27	28332.18
562.44	28297.08
562.60	28374.31
562.77	28411.76
562.93	28500.70
563.10	28643.48
563.26	28701.99
563.42	28809.65
563.59	28706.67
563.75	28692.63
563.92	28748.80
564.08	28240.90
564.24	28439.85
564.41	28620.07
564.57	28704.33
564.74	28563.90
564.90	28524.11
565.07	28856.46
565.23	28947.75
565.39	28840.08
565.56	28975.83
565.72	28905.62
565.88	28758.16
566.05	28624.75
566.21	28718.37
566.38	28814.34
566.54	28835.40
566.70	28964.13
566.87	28929.02
567.03	28634.11
567.19	29067.11
567.36	28933.70
567.52	28931.36
567.68	29160.73
567.85	28929.02
568.01	28914.98
568.17	28844.76
568.34	28959.45
568.50	29268.40
568.66	28833.06
568.83	29050.73
568.99	28886.89
569.15	28505.38
569.32	28922.00
569.48	28507.72
569.64	28926.68
569.81	29111.58
569.97	29010.94
570.13	29069.45
570.30	29418.19
570.46	29039.03
570.62	28945.41
570.78	28914.98
570.95	28851.78
571.11	29256.70
571.27	29003.92
571.43	28882.21
571.60	28725.39
571.76	28720.71
571.92	29090.52
572.09	29418.19
572.25	29088.18
572.41	29149.03
572.57	29446.28
572.74	29291.80
572.90	29113.92
573.06	29102.22
573.22	28716.03
573.38	28938.38
573.55	28804.97
573.71	29624.16
573.87	29603.10
574.03	29324.57
574.20	29467.34
574.36	29287.12
574.52	28907.96
574.68	28992.22
574.84	29186.48
575.01	29275.42
575.17	29294.14
575.33	29123.29
575.49	28676.24
575.65	29289.46
575.82	29436.92
575.98	29507.13
576.14	29619.48
576.30	29408.83
576.46	29057.75
576.62	29355.00
576.79	29647.57
576.95	29111.58
577.11	28975.83
577.27	29453.30
577.43	29495.43
577.59	29509.47
577.75	29596.07
577.92	29247.33
578.08	29507.13
578.24	28994.56
578.40	29462.66
578.56	29455.64
578.72	29352.66
578.88	29757.57
579.04	29439.26
579.21	29411.17
579.37	29572.67
579.53	29277.76
579.69	29333.93
579.85	29127.97
580.01	29174.78
580.17	29134.99
580.33	29336.27
580.49	29469.69
580.65	29235.63
580.82	29766.93
580.98	29528.20
581.14	29254.36
581.30	29188.82
581.46	29228.61
581.62	29095.20
581.78	28957.11
581.94	29399.47
582.10	29296.49
582.26	29254.36
582.42	29549.26
582.58	29532.88
582.74	29139.67
582.90	29340.96
583.06	29584.37
583.22	29895.66
583.38	29450.96
583.54	29312.87
583.70	29399.47
583.86	29481.39
584.02	29322.23
584.18	29729.48
584.34	29701.40
584.50	29649.91
584.66	29584.37
584.82	29259.04
584.98	29277.76
585.14	29642.88
585.30	29415.85
585.46	29200.52
585.62	29570.33
585.78	29788.00
585.94	29273.08
586.10	29841.83
586.26	29656.93
586.42	29947.15
586.58	29670.97
586.74	29378.40
586.90	29237.97
587.06	29537.56
587.22	29422.87
587.38	29174.78
587.54	29523.52
587.70	29759.91
587.86	29544.58
588.02	29809.06
588.18	29968.22
588.34	29589.05
588.49	29654.59
588.65	29392.45
588.81	29516.50
588.97	29432.24
589.13	29565.65
589.29	29680.33
589.45	29443.94
589.61	29635.86
589.77	29893.32
589.93	29965.88
590.08	30183.55
590.24	30061.84
590.40	30103.97
590.56	29633.52
590.72	29989.28
590.88	29228.61
591.04	29881.62
591.20	29905.02
591.35	30012.69
591.51	29951.84
591.67	30031.41
591.83	30338.02
591.99	30162.48
592.15	30195.25
592.31	29977.58
592.46	29968.22
592.62	29596.07
592.78	29537.56
592.94	29858.21
593.10	29881.62
593.26	30101.63
593.41	29717.78
593.57	30000.99
593.73	30054.82
593.89	29766.93
594.05	29912.05
594.20	30101.63
594.36	30155.46
594.52	29586.71
594.68	29266.06
594.84	29741.19
594.99	30052.48
595.15	30099.29
595.31	30017.37
595.47	30019.71
595.62	30176.53
595.78	30223.34
595.94	30092.27
596.10	30410.58
596.25	29909.71
596.41	30008.01
596.57	29792.68
596.73	29785.66
596.88	29514.16
597.04	30197.59
597.20	30291.21
597.36	30380.15
597.51	30113.33
597.67	30375.47
597.83	29865.24
597.99	29675.65
598.14	30206.95
598.30	29670.97
598.46	29816.08
598.61	30188.23
598.77	29830.13
598.93	30232.70
599.09	30015.03
599.24	30340.36
599.40	30190.57
599.56	29979.92
599.71	30249.08
599.87	30136.74
600.03	30139.08
600.18	29961.20
600.34	29895.66
600.50	30106.31
600.65	30122.69
600.81	30249.08
600.97	30181.21
601.12	30293.55
601.28	30424.62
601.44	30415.26
601.59	30089.93
601.75	30352.07
601.91	30054.82
602.06	29724.80
602.22	29764.59
602.37	29972.90
602.53	30026.73
602.69	30782.73
602.84	30288.87
603.00	30134.40
603.16	30153.12
603.31	30022.05
603.47	30003.33
603.62	29797.36
603.78	30396.54
603.94	30040.78
604.09	29965.88
604.25	29942.47
604.40	29799.70
604.56	29965.88
604.71	29862.90
604.87	30134.40
605.03	30314.62
605.18	30054.82
605.34	30483.14
605.49	29584.37
605.65	29851.19
605.80	29427.56
605.96	29656.93
606.12	29986.94
606.27	30213.98
606.43	29916.73
606.58	30136.74
606.74	29720.12
606.89	29968.22
607.05	30295.89
607.20	30366.11
607.36	29916.73
607.51	30000.99
607.67	29965.88
607.82	29844.17
607.98	30188.23
608.13	30082.91
608.29	29942.47
608.44	30094.61
608.60	29736.51
608.75	30377.81
608.91	30061.84
609.06	29834.81
609.22	29619.48
609.37	29619.48
609.53	29579.69
609.68	29738.85
609.84	29710.76
609.99	29799.70
610.15	29851.19
610.30	29778.64
610.46	29778.64
610.61	29851.19
610.76	29783.32
610.92	30153.12
611.07	30139.08
611.23	29682.67
611.38	30029.07
611.54	29741.19
611.69	29645.23
611.84	29830.13
612.00	29263.72
612.15	29488.41
612.31	29614.80
612.46	29387.77
612.62	29640.54
612.77	29448.62
612.92	29823.11
613.08	29619.48
613.23	29575.01
613.39	29289.46
613.54	29621.82
613.69	29560.97
613.85	29582.03
614.00	29469.69
614.15	29797.36
614.31	29701.40
614.46	29626.50
614.62	29596.07
614.77	29717.78
614.92	29715.44
615.08	29773.95
615.23	29462.66
615.38	29340.96
615.54	29296.49
615.69	29083.50
615.84	29436.92
616.00	29528.20
616.15	29156.05
616.30	29261.38
616.46	29207.55
616.61	29596.07
616.76	29106.90
616.92	29179.46
617.07	29205.20
617.22	29280.10
617.37	28907.96
617.53	29244.99
617.68	29343.30
617.83	28891.57
617.99	29273.08
618.14	29404.15
618.29	28861.15
618.45	28751.14
618.60	29198.18
618.75	29317.55
618.90	29247.33
619.06	29282.44
619.21	29003.92
619.36	29352.66
619.51	29085.84
619.67	28643.48
619.82	28645.82
619.97	28985.19
620.12	28854.12
620.28	28762.84
620.43	28816.68
620.58	28926.68
620.73	29252.02
620.89	28804.97
621.04	29046.05
621.19	29223.93
621.34	28594.32
621.49	28725.39
621.65	28638.80
621.80	29036.69
621.95	28622.41
622.10	28767.52
622.25	28533.47
622.41	28746.46
622.56	28629.43
622.71	28631.77
622.86	28320.48
623.01	28568.58
623.16	28669.22
623.32	28292.40
623.47	28938.38
623.62	28425.81
623.77	28072.39
623.92	28533.47
624.07	28313.46
624.23	28350.91
624.38	28577.94
624.53	28166.01
624.68	28746.46
624.83	28697.31
624.98	28381.34
625.13	28294.74
625.29	28196.43
625.44	28467.94
625.59	28390.70
625.74	28383.68
625.89	28009.19
626.04	28093.45
626.19	28226.86
626.34	28191.75
626.49	28339.21
626.65	28596.67
626.80	28219.84
626.95	28245.58
627.10	27969.40
627.25	28048.98
627.40	28058.34
627.55	27751.73
627.70	28048.98
627.85	28147.28
628.00	27955.36
628.15	27674.49
628.30	28020.89
628.45	28063.02
628.60	28306.44
628.76	28051.32
628.91	27828.97
629.06	28151.96
629.21	27662.79
629.36	27845.35
629.51	28025.57
629.66	27843.01
629.81	27807.90
629.96	27735.35
630.11	27995.15
630.26	27527.04
630.41	27824.29
630.56	27667.47
630.71	27400.65
630.86	27934.29
631.01	28095.79
631.16	27765.78
631.31	27845.35
631.46	27599.60
631.61	27510.66
631.76	27583.21
631.91	27728.33
632.06	27592.58
632.21	27571.51
632.36	27662.79
632.51	27307.03
632.66	27625.34
632.81	27468.53
632.96	27697.90
633.10	27395.97
633.25	27709.60
633.40	28074.73
633.55	27466.19
633.70	26991.06
633.85	27569.17
634.00	26993.40
634.15	27103.40
634.30	27449.80
634.45	27323.41
634.60	27388.95
634.75	27304.69
634.90	27161.92
635.05	27604.28
635.19	27571.51
635.34	27487.25
635.49	27522.36
635.64	27304.69
635.79	27517.68
635.94	27133.83
636.09	27295.33
636.24	27204.05
636.39	26932.54
636.53	26941.91
636.68	27159.58
636.83	26848.29
636.98	26831.90
637.13	27208.73
637.28	27199.37
637.43	27112.77
637.57	27070.64
637.72	26923.18
637.87	26738.28
638.02	27159.58
638.17	27009.78
638.32	26639.98
638.46	26998.08
638.61	26473.80
638.76	26464.44
638.91	26717.22
639.06	26525.29
639.20	26745.30
639.35	27300.01
639.50	26654.02
639.65	27009.78
639.80	27065.96
639.94	26604.87
640.09	26810.84
640.24	26728.92
640.39	26658.70
640.54	26398.90
640.68	26443.37
640.83	26544.02
640.98	26859.99
641.13	26080.59
641.27	26857.65
641.42	26415.29
641.57	26572.10
641.72	26766.37
641.86	26188.25
642.01	26590.83
642.16	26548.70
642.31	26043.14
642.45	26368.48
642.60	26111.02
642.75	26492.52
642.90	26038.46
643.04	26157.83
643.19	25958.88
643.34	26160.17
643.48	26038.46
643.63	26230.38
643.78	26197.62
643.93	26244.43
644.07	26354.43
644.22	26462.10
644.37	25813.77
644.51	26094.63
644.66	26066.55
644.81	25998.67
644.95	26132.08
645.10	26057.18
645.25	26249.11
645.39	25788.02
645.54	25996.33
645.69	25797.38
645.83	26326.35
645.98	26092.29
646.13	25701.42
646.27	26118.04
646.42	26005.69
646.57	26059.52
646.71	26066.55
646.86	25549.29
647.00	25851.22
647.15	26019.74
647.30	25886.32
647.44	25827.81
647.59	25834.83
647.74	25909.73
647.88	25818.45
648.03	25937.82
648.17	26071.23
648.32	26050.16
648.47	25975.27
648.61	26012.71
648.76	25743.55
648.90	25750.57
649.05	25825.47
649.20	25867.60
649.34	25624.18
649.49	25539.93
649.63	25729.51
649.78	25476.73
649.92	25483.75
650.07	25486.09
650.21	25352.68
650.36	25324.60
650.51	25523.54
650.65	25652.27
650.80	25441.62
650.94	25558.65
651.09	25165.44
651.23	25355.02
651.38	25357.36
651.52	25289.49
651.67	25144.38
651.81	25270.76
651.96	25289.49
652.10	25387.79
652.25	25443.96
652.39	25518.86
652.54	25469.71
652.68	25589.08
652.83	25329.28
652.97	25837.17
653.12	25333.96
653.26	25406.52
653.41	25144.38
653.55	25181.82
653.70	25184.16
653.84	25245.02
653.99	25053.09
654.13	25238.00
654.27	24903.30
654.42	25497.80
654.56	25006.28
654.71	25036.71
654.85	25181.82
655.00	25268.42
655.14	24886.92
655.29	25034.37
655.43	24765.21
655.57	24933.73
655.72	25057.78
655.86	25230.98
656.01	24835.42
656.15	25006.28
656.30	25029.69
656.44	24666.91
656.58	24474.98
656.73	24779.25
656.87	24638.82
657.01	24910.32
657.16	24919.68
657.30	24943.09
657.45	24882.24
657.59	24592.01
657.73	24613.07
657.88	24809.68
658.02	24519.45
658.16	24629.46
658.31	24601.37
658.45	24322.85
658.60	24446.90
658.74	24496.05
658.88	24224.54
659.03	24439.87
659.17	24191.78
659.31	24657.54
659.46	24369.66
659.60	24425.83
659.74	24498.39
659.89	24318.17
660.03	24128.58
660.17	24030.28
660.32	24116.88
660.46	24046.66
660.60	24215.18
660.74	23824.31
660.89	23976.45
661.03	23906.23
661.17	23955.38
661.32	23962.40
661.46	24343.91
661.60	24049.00
661.74	24348.59
661.89	24261.99
662.03	23985.81
662.17	23997.51
662.31	23997.51
662.46	23957.72
662.60	23763.46
662.74	23735.37
662.88	23585.58
663.03	23756.44
663.17	23386.63
663.31	23381.95
663.45	23763.46
663.60	23307.05
663.74	23112.79
663.88	23459.19
664.02	23257.90
664.17	23798.57
664.31	23414.72
664.45	23175.98
664.59	23323.44
664.73	23253.22
664.88	23145.56
665.02	22937.25
665.16	22977.04
665.30	23232.16
665.44	23105.77
665.59	23330.46
665.73	23220.45
665.87	22750.01
666.01	23075.34
666.15	22712.56
666.29	23164.28
666.44	23138.54
666.58	22569.79
666.72	22761.71
666.86	23047.26
667.00	23208.75
667.14	22857.67
667.28	22902.14
667.43	22632.98
667.57	22918.53
667.71	22492.55
667.85	22274.88
667.99	22572.13
668.13	22576.81
668.27	22541.70
668.41	22464.46
668.56	22464.46
668.70	22246.79
668.84	22307.65
668.98	22445.74
669.12	22768.73
669.26	22153.17
669.40	22419.99
669.54	22455.10
669.68	21860.60
669.82	22047.85
669.96	21963.59
670.10	21781.03
670.25	22045.51
670.39	22183.60
670.53	21774.00
670.67	22265.52
670.81	21972.95
670.95	21963.59
671.09	21844.22
671.23	21685.06
671.37	22347.44
671.51	21895.71
671.65	21603.14
671.79	21675.70
671.93	21638.25
672.07	21715.49
672.21	21195.89
672.35	21319.94
672.49	21436.97
672.63	21078.86
672.77	21275.47
672.91	21219.30
673.05	21303.56
673.19	21472.07
673.33	20830.77
673.47	21235.68
673.61	21507.18
673.75	21294.19
673.89	21420.58
674.03	21090.57
674.17	20919.71
674.31	20926.73
674.45	20833.11
674.59	20889.28
674.73	20872.90
674.87	20606.08
675.01	20837.79
675.15	20809.70
675.29	20732.47
675.43	20322.87
675.56	20372.02
675.70	20648.21
675.84	20762.89
675.98	19658.16
676.12	20610.76
676.26	20269.04
676.40	20559.27
676.54	20381.38
676.68	20449.26
676.82	19686.25
676.96	20053.71
677.10	20077.12
677.23	20042.01
677.37	19672.20
677.51	19845.40
677.65	19651.14
677.79	19697.95
677.93	19569.22
678.07	19843.06
678.21	19751.78
678.34	19367.93
678.48	19559.86
678.62	19499.00
678.76	19328.14
678.90	19274.31
679.04	19396.02
679.18	19323.46
679.31	19040.26
679.45	19288.35
679.59	18916.21
679.73	18838.97
679.87	18600.24
680.00	18796.84
680.14	18675.13
680.28	18607.26
680.42	18520.66
680.56	18829.61
680.70	18576.83
680.83	18609.60
680.97	18679.82
681.11	18677.48
681.25	18604.92
681.39	18427.04
681.52	18080.64
681.66	18345.12
681.80	18122.77
681.94	18001.06
682.07	18288.95
682.21	17907.44
682.35	17771.69
682.49	17748.28
682.62	17778.71
682.76	17598.49
682.90	17893.40
683.04	17703.81
683.17	17624.23
683.31	17893.40
683.45	18071.28
683.59	17720.20
683.72	17596.15
683.86	17165.49
684.00	17348.05
684.13	17191.23
684.27	17291.88
684.41	17444.01
684.55	17011.01
684.68	16610.78
684.82	16851.86
684.96	16954.84
685.09	17022.72
685.23	16748.87
685.37	16826.11
685.50	16669.30
685.64	17043.78
685.78	16690.36
685.91	16931.44
686.05	16737.17
686.19	16453.97
686.32	16706.74
686.46	16439.92
686.60	16210.55
686.73	16194.17
686.87	15730.74
687.01	16311.19
687.14	15992.88
687.28	16098.20
687.42	16079.48
687.55	16023.31
687.69	16060.76
687.82	15831.38
687.96	15896.92
688.10	15819.68
688.23	15786.91
688.37	15618.39
688.50	15573.92
688.64	15616.05
688.78	15866.49
688.91	15517.75
689.05	15592.65
689.18	15367.96
689.32	15281.36
689.46	15030.92
689.59	14871.76
689.73	15365.62
689.86	15021.56
690.00	15037.94
690.13	15201.78
690.27	15122.20
690.41	14974.75
690.54	14555.79
690.68	14993.47
690.81	14759.42
690.95	14817.93
691.08	14953.68
691.22	14675.16
691.35	14457.49
691.49	14682.18
691.62	14649.41
691.76	14375.57
691.89	14333.44
692.03	14031.51
692.16	14228.12
692.30	14031.51
692.43	13900.44
692.57	13905.12
692.70	13968.32
692.84	13858.31
692.97	13797.46
693.11	14141.52
693.24	13659.37
693.38	13909.80
693.51	13750.65
693.65	13991.72
693.78	13460.42
693.92	13514.25
694.05	13614.90
694.19	13621.92
694.32	13371.48
694.45	13509.57
694.59	13226.37
694.72	13060.19
694.86	13109.34
694.99	13020.40
695.13	12931.46
695.26	13055.51
695.39	13071.89
695.53	12896.35
695.66	13156.15
695.80	12666.98
695.93	12910.40
696.07	12760.60
696.20	12929.12
696.33	12842.52
696.47	12662.30
696.60	12411.86
696.73	12725.49
696.87	12556.97
697.00	12322.92
697.14	12205.89
697.27	12166.10
697.40	12114.61
697.54	12042.06
697.67	12009.29
697.80	11915.67
697.94	11836.09
698.07	11740.13
698.21	11779.92
698.34	11925.03
698.47	12009.29
698.61	11927.37
698.74	12126.32
698.87	11943.75
699.01	11791.62
699.14	11719.06
699.27	11452.24
699.40	11637.14
699.54	11513.10
699.67	11442.88
699.80	11375.00
699.94	11494.37
700.07	11309.47
700.20	11061.37
700.34	11220.53
700.47	11150.31
700.60	10963.07
700.73	11279.04
700.87	11082.44
701.00	10895.19
701.13	10766.46
701.26	10864.77
701.40	10853.06
701.53	10829.66
701.66	10745.40
701.79	10820.30
701.93	10661.14
702.06	10621.35
702.19	10408.36
702.32	10441.13
702.46	10429.43
702.59	10218.78
702.72	10253.89
702.85	10326.44
702.99	10099.41
703.12	10232.82
703.25	10244.52
703.38	10239.84
703.51	10193.03
703.65	10038.56
703.78	9930.89
703.91	9958.98
704.04	10005.79
704.17	9710.88
704.31	10132.18
704.44	9734.29
704.57	9827.91
704.70	9762.37
704.83	9535.34
704.96	9518.96
705.10	9364.48
705.23	9394.91
>>>>>End Processed Spectral Data<<<<<
